PPG_IR1,PPG_IR2,PPG_G1,PPG_G2,PacketCounter,PacketLoss,Timestamp
37832,33528,69429,70096,700,10,09:55:37.814679
37828,33525,69428,70095,710,0,09:55:37.854343
37828,33525,69426,70096,720,0,09:55:37.894665
37827,33521,69429,70102,730,0,09:55:37.935331
37823,33522,69429,70098,740,0,09:55:37.974175
37821,33527,69429,70100,750,0,09:55:38.014349
37814,33525,69424,70097,760,0,09:55:38.054242
37850,33525,69425,70097,770,0,09:55:38.105463
37802,33520,69432,70102,780,0,09:55:38.134701
37827,33524,69351,70098,790,0,09:55:38.175057
37825,33520,69454,70107,800,0,09:55:38.215690
37828,33525,69385,70100,810,0,09:55:38.255216
37824,33523,69427,70100,820,0,09:55:38.294683
37829,33525,69428,70103,830,0,09:55:38.335341
37825,33522,69427,70097,840,0,09:55:38.375351
37827,33521,69426,70098,850,0,09:55:38.414440
37827,33525,69427,70100,860,0,09:55:38.454539
37826,33522,69425,70095,870,0,09:55:38.494572
37846,33519,69423,70095,880,0,09:55:38.544599
37832,33526,69419,70097,890,0,09:55:38.584681
37864,33521,69425,70100,900,0,09:55:38.614701
37811,33522,69423,70097,910,0,09:55:38.655334
37822,33521,69413,70101,920,0,09:55:38.694671
37822,33518,69461,70096,930,0,09:55:38.735352
37826,33521,69408,70095,940,0,09:55:38.774685
37828,33523,69426,70099,950,0,09:55:38.814338
37824,33520,69422,70095,960,0,09:55:38.855302
37825,33522,69423,70092,970,0,09:55:38.894351
37825,33522,69422,70089,980,0,09:55:38.935378
37785,33518,69425,70094,990,0,09:55:38.974457
37826,33524,69421,70092,1000,0,09:55:39.025360
37834,33519,69421,70093,1010,0,09:55:39.064866
39364,34908,88373,89745,1020,0,09:55:39.105477
39618,35107,91138,92731,1030,0,09:55:39.135058
39602,35106,91141,92731,1040,0,09:55:39.175050
39610,35111,91161,92737,1050,0,09:55:39.215450
39615,35113,91085,92730,1060,0,09:55:39.254665
39606,35099,91156,92730,1070,0,09:55:39.295329
39608,35108,91139,92730,1080,0,09:55:39.334655
39609,35107,91136,92727,1090,0,09:55:39.374551
39608,35110,91136,92731,1100,0,09:55:39.414463
39606,35107,91133,92728,1110,0,09:55:39.454911
39617,35105,91134,92729,1120,0,09:55:39.494635
39607,35109,91136,92730,1130,0,09:55:39.535333
39603,35102,91134,92726,1140,0,09:55:39.585299
39601,35101,91131,92721,1150,0,09:55:39.614920
39590,35107,91132,92731,1160,0,09:55:39.655661
39664,35108,91133,92725,1170,0,09:55:39.695418
39579,35103,91112,92728,1180,0,09:55:39.734659
39606,35107,91138,92730,1190,0,09:55:39.774308
39604,35101,91178,92726,1200,0,09:55:39.815175
39605,35103,91112,92725,1210,0,09:55:39.865395
39605,35107,91132,92728,1220,0,09:55:39.895683
39608,35109,91129,92724,1230,0,09:55:39.935222
39603,35102,91132,92728,1240,0,09:55:39.975374
39604,35105,91130,92722,1250,0,09:55:40.014340
39606,35110,91138,92735,1260,0,09:55:40.054707
39606,35105,91132,92729,1270,0,09:55:40.095303
39621,35109,91130,92719,1280,0,09:55:40.134623
39582,35099,91127,92721,1290,0,09:55:40.174305
39592,35105,91128,92719,1300,0,09:55:40.214495
39655,35110,91141,92724,1310,0,09:55:40.254598
39602,35106,91129,92726,1320,0,09:55:40.294692
39604,35106,91119,92726,1330,0,09:55:40.335203
39601,35101,91160,92720,1340,0,09:55:40.374663
39601,35100,91126,92724,1350,0,09:55:40.414447
39600,35103,91130,92726,1360,0,09:55:40.454798
39602,35101,91128,92725,1370,0,09:55:40.504981
39606,35107,91132,92732,1380,0,09:55:40.544873
39604,35102,91128,92722,1390,0,09:55:40.574795
39601,35101,91126,92719,1400,0,09:55:40.614910
39604,35105,91129,92722,1410,0,09:55:40.654424
39602,35099,91128,92722,1420,0,09:55:40.695523
39638,35103,91130,92718,1430,0,09:55:40.735418
39567,35106,91101,92721,1440,0,09:55:40.774813
39580,35101,91129,92723,1450,0,09:55:40.815244
39598,35099,91108,92716,1460,0,09:55:40.874643
39604,35104,91099,92722,1470,0,09:55:40.885368
39595,35098,91123,92721,1480,0,09:55:40.934647
39591,35092,91126,92724,1490,0,09:55:40.975295
39601,35105,91124,92722,1500,0,09:55:41.014883
39597,35104,91122,92722,1510,0,09:55:41.064587
39598,35103,91123,92721,1520,0,09:55:41.094607
40870,36256,105060,107157,1530,0,09:55:41.134501
41440,36768,111371,113738,1540,0,09:55:41.175635
41450,36775,111375,113736,1550,0,09:55:41.215329
41446,36767,111373,113735,1560,0,09:55:41.245224
41393,36771,111385,113745,1570,0,09:55:41.284887
41518,36772,111373,113733,1580,0,09:55:41.324840
41407,36771,111388,113729,1590,0,09:55:41.365397
41442,36768,111303,113734,1600,0,09:55:41.405148
41445,36772,111434,113737,1610,0,09:55:41.444529
41442,36768,111347,113732,1620,0,09:55:41.485301
41444,36772,111370,113731,1630,0,09:55:41.525373
41441,36771,111369,113731,1640,0,09:55:41.565298
41438,36763,111364,113724,1650,0,09:55:41.604379
41443,36774,111368,113736,1660,0,09:55:41.654583
41442,36770,111369,113732,1670,0,09:55:41.695229
41442,36770,111364,113732,1680,0,09:55:41.725296
41440,36769,111365,113731,1690,0,09:55:41.765157
41453,36764,111362,113725,1700,0,09:55:41.804849
41424,36763,111366,113728,1710,0,09:55:41.845562
41445,36767,111362,113726,1720,0,09:55:41.884975
41437,36769,111386,113727,1730,0,09:55:41.925369
41442,36775,111353,113728,1740,0,09:55:41.974824
41439,36769,111360,113725,1750,0,09:55:42.004778
41435,36765,111364,113733,1760,0,09:55:42.045295
41437,36766,111361,113723,1770,0,09:55:42.085339
41443,36771,111363,113729,1780,0,09:55:42.125298
41434,36762,111365,113728,1790,0,09:55:42.174299
41436,36761,111363,113727,1800,0,09:55:42.244915
41441,36769,111364,113729,1810,0,09:55:42.255105
41465,36765,111362,113727,1820,0,09:55:42.284937
41442,36769,111369,113727,1830,0,09:55:42.326036
41393,36759,111358,113726,1840,0,09:55:42.365296
41496,36765,111362,113726,1850,0,09:55:42.405343
41423,36767,111405,113723,1860,0,09:55:42.445323
41437,36765,111317,113727,1870,0,09:55:42.485922
41440,36770,111411,113725,1880,0,09:55:42.525292
41437,36764,111349,113726,1890,0,09:55:42.564730
41434,36763,111358,113723,1900,0,09:55:42.615112
41435,36762,111357,113725,1910,0,09:55:42.655324
41434,36762,111357,113723,1920,0,09:55:42.685908
41436,36767,111356,113720,1930,0,09:55:42.725929
41441,36773,111359,113723,1940,0,09:55:42.764930
41438,36759,111357,113718,1950,0,09:55:42.805644
41436,36768,111355,113719,1960,0,09:55:42.844852
41478,36763,111360,113727,1970,0,09:55:42.885279
41409,36762,111349,113716,1980,0,09:55:42.924432
41425,36762,111359,113726,1990,0,09:55:42.964901
41421,36765,111390,113721,2000,0,09:55:43.004824
41438,36765,111319,113723,2010,0,09:55:43.044405
41434,36763,111362,113721,2020,0,09:55:43.094618
41436,36767,111345,113721,2030,0,09:55:43.135327
42383,37603,120906,123556,2040,0,09:55:43.174657
43339,38452,130397,133382,2050,0,09:55:43.204651
43341,38456,130393,133375,2060,0,09:55:43.245325
43338,38452,130392,133386,2070,0,09:55:43.285166
43328,38450,130385,133378,2080,0,09:55:43.325321
43339,38452,130386,133377,2090,0,09:55:43.365092
43341,38456,130383,133377,2100,0,09:55:43.404616
43328,38447,130392,133379,2110,0,09:55:43.464492
43328,38451,130368,133376,2120,0,09:55:43.485304
43365,38456,130387,133383,2130,0,09:55:43.525393
43328,38448,130419,133375,2140,0,09:55:43.565323
43337,38450,130375,133372,2150,0,09:55:43.605370
43342,38455,130411,133373,2160,0,09:55:43.655089
43337,38453,130379,133377,2170,0,09:55:43.685882
43334,38448,130380,133371,2180,0,09:55:43.725502
43337,38452,130379,133370,2190,0,09:55:43.765347
43335,38448,130383,133374,2200,0,09:55:43.805152
43340,38450,130380,133371,2210,0,09:55:43.844867
43344,38450,130384,133376,2220,0,09:55:43.885872
43339,38454,130383,133379,2230,0,09:55:43.924474
43366,38452,130383,133373,2240,0,09:55:43.965302
43307,38451,130382,133370,2250,0,09:55:44.005071
43342,38441,130377,133369,2260,0,09:55:44.045875
43347,38456,130382,133370,2270,0,09:55:44.094291
43338,38450,130343,133373,2280,0,09:55:44.134665
43336,38449,130392,133369,2290,0,09:55:44.174650
43333,38445,130374,133379,2300,0,09:55:44.206227
43342,38456,130380,133373,2310,0,09:55:44.245361
43334,38449,130375,133366,2320,0,09:55:44.284869
43336,38449,130378,133369,2330,0,09:55:44.325574
43331,38441,130379,133370,2340,0,09:55:44.364860
43337,38452,130377,133375,2350,0,09:55:44.405520
43333,38445,130378,133372,2360,0,09:55:44.445287
43334,38450,130377,133374,2370,0,09:55:44.485572
43351,38453,130377,133372,2380,0,09:55:44.525321
43296,38448,130370,133365,2390,0,09:55:44.574505
43358,38447,130371,133364,2400,0,09:55:44.614920
43308,38448,130394,133369,2410,0,09:55:44.654810
43331,38445,130373,133375,2420,0,09:55:44.685288
43336,38450,130408,133369,2430,0,09:55:44.725335
43334,38449,130358,133367,2440,0,09:55:44.764907
43333,38446,130371,133360,2450,0,09:55:44.804992
43335,38447,130368,133360,2460,0,09:55:44.844175
43333,38446,130376,133371,2470,0,09:55:44.885757
43333,38445,130369,133364,2480,0,09:55:44.925283
43331,38446,130372,133360,2490,0,09:55:44.964195
43330,38448,130373,133368,2500,0,09:55:45.005083
43330,38444,130368,133369,2510,0,09:55:45.045196
43315,38445,130371,133367,2520,0,09:55:45.084912
43351,38444,130370,133363,2530,0,09:55:45.134577
43363,38442,130370,133366,2540,0,09:55:45.174470
43784,38854,135054,138102,2550,0,09:55:45.205387
45181,40082,148957,152393,2560,0,09:55:45.245799
45174,40077,148977,152389,2570,0,09:55:45.284977
45180,40085,148951,152383,2580,0,09:55:45.324633
45173,40078,148962,152380,2590,0,09:55:45.364163
45184,40091,148960,152385,2600,0,09:55:45.405284
45178,40080,148958,152388,2610,0,09:55:45.444473
45178,40086,148961,152388,2620,0,09:55:45.484843
45181,40091,148961,152388,2630,0,09:55:45.525332
45178,40084,148957,152380,2640,0,09:55:45.575645
45196,40079,148935,152380,2650,0,09:55:45.614318
45174,40085,148931,152385,2660,0,09:55:45.645313
45200,40083,148953,152378,2670,0,09:55:45.685152
45184,40081,148978,152378,2680,0,09:55:45.725198
45177,40089,148938,152382,2690,0,09:55:45.765805
45173,40080,148948,152379,2700,0,09:55:45.804822
45177,40087,148945,152375,2710,0,09:55:45.844228
45175,40088,148950,152378,2720,0,09:55:45.885281
45174,40084,148945,152370,2730,0,09:55:45.925033
45172,40083,148949,152382,2740,0,09:55:45.964443
45176,40086,148949,152379,2750,0,09:55:46.005477
45172,40083,148948,152378,2760,0,09:55:46.045285
45173,40088,148943,152371,2770,0,09:55:46.094311
45172,40082,148946,152371,2780,0,09:55:46.125283
45177,40080,148949,152381,2790,0,09:55:46.164562
45186,40079,148944,152375,2800,0,09:55:46.205182
45164,40080,148947,152372,2810,0,09:55:46.244497
45154,40082,148948,152379,2820,0,09:55:46.285104
45170,40079,148957,152365,2830,0,09:55:46.325046
45175,40082,148990,152378,2840,0,09:55:46.364199
45174,40079,148918,152372,2850,0,09:55:46.430830
45172,40077,148944,152373,2860,0,09:55:46.444276
45169,40077,148947,152373,2870,0,09:55:46.485100
45176,40083,148949,152371,2880,0,09:55:46.524153
45176,40081,148951,152368,2890,0,09:55:46.564208
45174,40082,148948,152381,2900,0,09:55:46.605304
45175,40084,148950,152380,2910,0,09:55:46.644867
45173,40080,148946,152378,2920,0,09:55:46.684866
45141,40077,148939,152374,2930,0,09:55:46.724801
45159,40075,148964,152379,2940,0,09:55:46.764180
45191,40077,148945,152370,2950,0,09:55:46.805165
45167,40081,148918,152374,2960,0,09:55:46.845275
45172,40079,148880,152377,2970,0,09:55:46.885073
45169,40077,148980,152375,2980,0,09:55:46.924894
45172,40079,148941,152370,2990,0,09:55:46.965353
45169,40078,148946,152373,3000,0,09:55:47.005192
45172,40076,148945,152371,3010,0,09:55:47.055142
45171,40084,148947,152378,3020,0,09:55:47.094282
45176,40090,148945,152373,3030,0,09:55:47.124762
45173,40084,148939,152369,3040,0,09:55:47.184751
45166,40074,148946,152375,3050,0,09:55:47.204610
45326,40185,150065,153500,3060,0,09:55:47.245209
47072,41756,166691,170452,3070,0,09:55:47.285633
47049,41758,166736,170450,3080,0,09:55:47.325276
47074,41750,166753,170448,3090,0,09:55:47.365046
47066,41755,166753,170442,3100,0,09:55:47.424569
47067,41753,166692,170440,3110,0,09:55:47.451498
47068,41756,166713,170438,3120,0,09:55:47.485436
47066,41752,166720,170435,3130,0,09:55:47.534916
47071,41756,166721,170435,3140,0,09:55:47.564736
47067,41755,166722,170438,3150,0,09:55:47.604182
47065,41751,166722,170438,3160,0,09:55:47.645286
47067,41753,166717,170435,3170,0,09:55:47.685043
47069,41754,166718,170436,3180,0,09:55:47.724376
47067,41749,166719,170436,3190,0,09:55:47.765237
47055,41748,166730,170432,3200,0,09:55:47.805260
47082,41750,166719,170433,3210,0,09:55:47.844153
47133,41755,166721,170435,3220,0,09:55:47.904637
47053,41748,166719,170432,3230,0,09:55:47.924900
47066,41747,166702,170427,3240,0,09:55:47.965305
47066,41746,166753,170430,3250,0,09:55:48.004961
47066,41746,166690,170429,3260,0,09:55:48.044605
47067,41747,166711,170432,3270,0,09:55:48.085026
47071,41756,166714,170432,3280,0,09:55:48.125223
47071,41754,166710,170429,3290,0,09:55:48.164436
47073,41752,166712,170431,3300,0,09:55:48.204990
47067,41753,166714,170428,3310,0,09:55:48.245489
47073,41750,166711,170432,3320,0,09:55:48.285852
47081,41749,166709,170428,3330,0,09:55:48.324167
47061,41747,166707,170427,3340,0,09:55:48.365304
46989,41743,166707,170426,3350,0,09:55:48.405035
47093,41746,166710,170424,3360,0,09:55:48.445157
47056,41744,166707,170429,3370,0,09:55:48.485220
47063,41749,166634,170430,3380,0,09:55:48.524885
47062,41745,166760,170424,3390,0,09:55:48.574824
47063,41748,166708,170426,3410,-10,09:55:48.645754
47070,41751,166704,170423,3420,0,09:55:48.684892
47060,41748,166706,170429,3430,0,09:55:48.725135
47045,41746,166707,170426,3440,0,09:55:48.764902
47063,41744,166708,170425,3450,0,09:55:48.804155
47071,41749,166709,170427,3460,0,09:55:48.845259
47087,41748,166714,170432,3470,0,09:55:48.885037
47072,41746,166711,170432,3480,0,09:55:48.924929
47049,41747,166718,170434,3490,0,09:55:48.965214
47060,41747,166727,170429,3500,0,09:55:49.005100
47061,41746,166684,170429,3510,0,09:55:49.045228
47064,41750,166704,170427,3520,0,09:55:49.085052
47061,41746,166705,170421,3530,0,09:55:49.124998
47060,41743,166712,170425,3540,0,09:55:49.164934
47064,41754,166708,170423,3550,0,09:55:49.204177
47062,41748,166705,170422,3560,0,09:55:49.245268
47062,41746,166705,170416,3570,0,09:55:49.285218
48629,43135,182062,186038,3580,0,09:55:49.326800
48851,43333,184285,188278,3590,0,09:55:49.365184
48853,43338,184279,188264,3600,0,09:55:49.405180
48852,43333,184286,188272,3610,0,09:55:49.444731
48889,43336,184279,188272,3620,0,09:55:49.484983
48835,43333,184284,188267,3630,0,09:55:49.524626
48850,43330,184283,188262,3640,0,09:55:49.564990
48855,43338,184320,188266,3650,0,09:55:49.605063
48857,43339,184254,188259,3660,0,09:55:49.655331
48851,43331,184276,188255,3670,0,09:55:49.684549
48855,43335,184280,188259,3680,0,09:55:49.734416
48853,43335,184277,188262,3690,0,09:55:49.765332
48853,43336,184273,188256,3700,0,09:55:49.805226
48853,43335,184270,188256,3710,0,09:55:49.844359
48851,43333,184271,188253,3720,0,09:55:49.904591
48849,43331,184272,188258,3730,0,09:55:49.925124
48866,43338,184271,188260,3740,0,09:55:49.965001
48767,43330,184274,188259,3750,0,09:55:50.024644
48876,43329,184270,188252,3760,0,09:55:50.045190
48824,43330,184288,188247,3770,0,09:55:50.085130
48842,43326,184196,188253,3780,0,09:55:50.124852
48848,43329,184355,188255,3790,0,09:55:50.165335
48850,43333,184233,188253,3800,0,09:55:50.204790
48846,43330,184262,188250,3810,0,09:55:50.245173
48849,43328,184265,188251,3820,0,09:55:50.284895
48842,43323,184266,188250,3830,0,09:55:50.325027
48849,43329,184265,188251,3840,0,09:55:50.366620
48843,43330,184266,188259,3850,0,09:55:50.404814
48847,43329,184265,188251,3860,0,09:55:50.445051
48845,43329,184265,188254,3870,0,09:55:50.485215
48866,43326,184265,188248,3880,0,09:55:50.525174
48824,43332,184262,188248,3890,0,09:55:50.564151
48824,43330,184268,188259,3900,0,09:55:50.605211
48844,43331,184289,188253,3910,0,09:55:50.655078
48845,43327,184295,188260,3920,0,09:55:50.684998
48844,43329,184263,188255,3930,0,09:55:50.725111
48843,43323,184263,188252,3940,0,09:55:50.764550
48843,43325,184262,188246,3950,0,09:55:50.805040
48848,43329,184260,188243,3960,0,09:55:50.845263
48847,43328,184260,188247,3970,0,09:55:50.884878
48845,43327,184261,188247,3980,0,09:55:50.925003
48849,43333,184261,188245,3990,0,09:55:50.965309
48843,43326,184263,188255,4000,0,09:55:51.024646
48864,43333,184254,188242,4010,0,09:55:51.044276
48800,43334,184256,188243,4020,0,09:55:51.085088
48879,43322,184255,188242,4030,0,09:55:51.124917
48821,43322,184292,188251,4040,0,09:55:51.174625
48844,43329,184228,188240,4050,0,09:55:51.204350
48843,43323,184293,188240,4060,0,09:55:51.245247
48841,43320,184235,188236,4070,0,09:55:51.284898
48843,43327,184257,188248,4080,0,09:55:51.325262
50034,44388,194837,198932,4090,0,09:55:51.364879
50745,45017,201197,205356,4100,0,09:55:51.404467
50745,45014,201200,205358,4110,0,09:55:51.444368
50748,45024,201196,205360,4120,0,09:55:51.494868
50749,45022,201191,205349,4130,0,09:55:51.525333
50745,45015,201191,205348,4140,0,09:55:51.564210
50756,45015,201196,205356,4150,0,09:55:51.604207
50732,45021,201196,205356,4160,0,09:55:51.654606
50794,45020,201188,205344,4170,0,09:55:51.685009
50728,45016,201203,205349,4180,0,09:55:51.725085
50745,45014,201179,205341,4190,0,09:55:51.764186
50748,45018,201218,205342,4200,0,09:55:51.805293
50748,45019,201162,205340,4210,0,09:55:51.845017
50743,45016,201183,205340,4220,0,09:55:51.894865
50751,45021,201184,205342,4230,0,09:55:51.924161
50746,45016,201183,205338,4240,0,09:55:51.965114
50742,45012,201187,205344,4250,0,09:55:52.005007
50737,45017,201184,205345,4260,0,09:55:52.044908
50746,45017,201183,205340,4270,0,09:55:52.084528
50749,45011,201185,205345,4280,0,09:55:52.134622
50732,45020,201149,205340,4290,0,09:55:52.164075
50772,45023,201182,205340,4300,0,09:55:52.204950
50734,45012,201179,205334,4310,0,09:55:52.245216
50745,45017,201125,205344,4320,0,09:55:52.284960
50749,45024,201170,205346,4330,0,09:55:52.325339
50740,45014,201176,205343,4340,0,09:55:52.365256
50744,45014,201170,205328,4350,0,09:55:52.414912
50744,45016,201166,205328,4360,0,09:55:52.444824
50747,45017,201175,205337,4370,0,09:55:52.494287
50744,45011,201174,205335,4380,0,09:55:52.525034
50745,45017,201172,205330,4390,0,09:55:52.564164
50741,45014,201171,205333,4400,0,09:55:52.605258
50745,45014,201172,205331,4410,0,09:55:52.644444
50748,45011,201174,205338,4420,0,09:55:52.684901
50703,45019,201172,205331,4430,0,09:55:52.724450
50803,45016,201174,205332,4440,0,09:55:52.765215
50702,45010,201179,205332,4450,0,09:55:52.804822
50742,45012,201119,205330,4460,0,09:55:52.845283
50741,45012,201219,205331,4470,0,09:55:52.884861
50741,45015,201142,205335,4480,0,09:55:52.925136
50742,45012,201178,205345,4490,0,09:55:52.975251
50738,45016,201169,205329,4500,0,09:55:53.004868
50742,45011,201167,205325,4510,0,09:55:53.044162
50737,45010,201168,205336,4520,0,09:55:53.085188
50740,45014,201170,205333,4530,0,09:55:53.124154
50742,45017,201170,205329,4540,0,09:55:53.164154
50746,45013,201165,205325,4550,0,09:55:53.204912
50724,45010,201166,205327,4560,0,09:55:53.244895
50767,45015,201166,205324,4570,0,09:55:53.284492
50771,45013,201170,205328,4580,0,09:55:53.325253
50740,45011,201154,205326,4590,0,09:55:53.374743
51552,45729,201192,205326,4600,0,09:55:53.405164
52595,46658,201157,205321,4610,0,09:55:53.445332
52597,46662,201164,205322,4620,0,09:55:53.485148
52598,46662,201163,205316,4630,0,09:55:53.525169
52596,46663,201164,205325,4640,0,09:55:53.565253
52595,46664,201161,205328,4650,0,09:55:53.624131
52595,46667,201158,205318,4660,0,09:55:53.644138
52613,46661,201158,205319,4670,0,09:55:53.685175
52593,46659,201161,205324,4680,0,09:55:53.724508
52605,46659,201160,205320,4690,0,09:55:53.764916
52575,46663,201156,205316,4700,0,09:55:53.805254
52592,46660,201165,205326,4710,0,09:55:53.844141
52574,46658,201167,205320,4720,0,09:55:53.885102
52593,46656,201138,205320,4730,0,09:55:53.925337
52594,46660,201143,205320,4740,0,09:55:53.974665
52594,46657,201159,205320,4750,0,09:55:54.005005
52594,46660,201159,205313,4760,0,09:55:54.045061
52595,46658,201161,205315,4770,0,09:55:54.091552
52594,46656,201159,205320,4780,0,09:55:54.125076
52600,46659,201161,205318,4790,0,09:55:54.164135
52599,46658,201156,205318,4800,0,09:55:54.204700
52590,46656,201153,205318,4810,0,09:55:54.244604
52588,46656,201153,205315,4820,0,09:55:54.284792
52607,46658,201153,205316,4830,0,09:55:54.324585
52594,46656,201159,205325,4840,0,09:55:54.365278
52661,46663,201154,205315,4850,0,09:55:54.405057
52552,46662,201170,205313,4860,0,09:55:54.444883
52588,46656,201184,205329,4870,0,09:55:54.484714
52591,46662,201199,205320,4880,0,09:55:54.524548
52597,46664,201121,205314,4890,0,09:55:54.564144
52591,46660,201158,205320,4900,0,09:55:54.604186
52586,46653,201156,205319,4910,0,09:55:54.644868
52595,46660,201159,205318,4920,0,09:55:54.684861
52587,46656,201158,205321,4930,0,09:55:54.724572
52591,46660,201154,205318,4940,0,09:55:54.765279
52589,46653,201155,205319,4950,0,09:55:54.805019
52594,46660,201158,205321,4960,0,09:55:54.844900
52579,46652,201155,205317,4970,0,09:55:54.885011
52572,46658,201155,205322,4980,0,09:55:54.925225
52627,46666,201154,205316,4990,0,09:55:54.965645
52587,46659,201174,205316,5000,0,09:55:55.005100
52583,46650,201142,205315,5010,0,09:55:55.044387
52590,46656,201183,205319,5020,0,09:55:55.084995
52585,46652,201149,205312,5030,0,09:55:55.124605
52591,46662,201154,205321,5040,0,09:55:55.164587
52592,46662,201153,205319,5050,0,09:55:55.204480
52590,46656,201154,205314,5060,0,09:55:55.243901
52588,46652,201150,205311,5070,0,09:55:55.284494
52590,46657,201154,205318,5080,0,09:55:55.334864
52589,46659,201149,205308,5090,0,09:55:55.364785
52598,46660,201150,205310,5100,0,09:55:55.404690
53016,47052,201151,205312,5110,0,09:55:55.444918
54308,48234,201149,205310,5120,0,09:55:55.484537
54348,48237,201162,205316,5130,0,09:55:55.524544
54366,48239,201131,205314,5140,0,09:55:55.564437
54362,48231,201138,205310,5150,0,09:55:55.604542
54364,48233,201132,205304,5160,0,09:55:55.644614
54365,48235,201155,205317,5170,0,09:55:55.684584
54367,48235,201152,205314,5180,0,09:55:55.724588
54363,48233,201151,205312,5190,0,09:55:55.764592
54362,48233,201143,205306,5200,0,09:55:55.815478
54362,48233,201152,205309,5210,0,09:55:55.844582
54367,48238,201147,205307,5220,0,09:55:55.884522
54367,48239,201148,205311,5230,0,09:55:55.924609
54376,48243,201147,205313,5240,0,09:55:55.964550
54359,48238,201146,205302,5250,0,09:55:56.004562
54389,48228,201147,205306,5260,0,09:55:56.045245
54347,48234,201149,205304,5270,0,09:55:56.084602
54363,48234,201104,205305,5280,0,09:55:56.124578
54366,48235,201175,205302,5290,0,09:55:56.164340
54364,48237,201132,205300,5300,0,09:55:56.204601
54364,48235,201144,205305,5310,0,09:55:56.244617
54359,48226,201149,205310,5320,0,09:55:56.284632
54367,48238,201143,205300,5330,0,09:55:56.324575
54363,48234,201140,205306,5340,0,09:55:56.364633
54364,48242,201144,205305,5350,0,09:55:56.405000
54359,48231,201145,205305,5360,0,09:55:56.444518
54359,48231,201143,205305,5370,0,09:55:56.484409
54370,48231,201142,205302,5380,0,09:55:56.524303
54331,48230,201148,205306,5390,0,09:55:56.565194
54422,48234,201151,205311,5400,0,09:55:56.612068
54351,48226,201166,205304,5410,0,09:55:56.645222
54361,48228,201109,205304,5420,0,09:55:56.684568
54363,48232,201172,205307,5430,0,09:55:56.724587
54365,48233,201135,205303,5440,0,09:55:56.764330
54365,48236,201137,205303,5450,0,09:55:56.804565
54364,48233,201134,205303,5460,0,09:55:56.844569
54362,48232,201142,205307,5470,0,09:55:56.892001
54363,48231,201136,205299,5480,0,09:55:56.924598
54362,48232,201139,205304,5490,0,09:55:56.964018
54361,48233,201136,205305,5500,0,09:55:57.015184
54375,48231,201138,205307,5510,0,09:55:57.044618
54333,48236,201140,205305,5520,0,09:55:57.084578
54411,48230,201139,205305,5530,0,09:55:57.124613
54347,48235,201150,205307,5540,0,09:55:57.165180
54359,48232,201134,205308,5550,0,09:55:57.204569
54360,48230,201179,205306,5560,0,09:55:57.244590
54360,48229,201119,205312,5570,0,09:55:57.284534
54356,48226,201138,205306,5580,0,09:55:57.324585
54364,48232,201142,205314,5590,0,09:55:57.364622
54363,48238,201141,205308,5600,0,09:55:57.404596
54357,48233,201142,205308,5610,0,09:55:57.455472
54358,48229,201132,205298,5620,0,09:55:57.495130
56260,49920,201138,205301,5630,0,09:55:57.524132
56265,49925,201143,205307,5640,0,09:55:57.564651
56266,49920,201143,205301,5650,0,09:55:57.604616
56209,49925,201132,205299,5660,0,09:55:57.644539
56285,49924,201132,205300,5670,0,09:55:57.684643
56244,49918,201140,205307,5680,0,09:55:57.724624
56262,49923,201080,205295,5690,0,09:55:57.771117
56265,49924,201164,205307,5700,0,09:55:57.804627
56263,49924,201124,205304,5710,0,09:55:57.844520
56265,49924,201135,205299,5720,0,09:55:57.884419
56264,49919,201136,205304,5730,0,09:55:57.935495
56266,49925,201138,205308,5740,0,09:55:57.964918
56261,49918,201135,205301,5750,0,09:55:58.005022
56264,49925,201137,205299,5760,0,09:55:58.044625
56267,49924,201133,205298,5770,0,09:55:58.084645
56260,49917,201136,205302,5780,0,09:55:58.131990
56263,49925,201124,205294,5790,0,09:55:58.164520
56262,49927,201128,205295,5800,0,09:55:58.204601
56245,49919,201128,205293,5810,0,09:55:58.244611
56252,49919,201107,205296,5820,0,09:55:58.284643
56261,49922,201100,205301,5830,0,09:55:58.324665
56259,49921,201152,205301,5840,0,09:55:58.364177
56267,49928,201128,205300,5850,0,09:55:58.404634
56261,49921,201131,205295,5860,0,09:55:58.444645
56265,49925,201129,205293,5870,0,09:55:58.494719
56262,49920,201130,205307,5880,0,09:55:58.525626
56277,49922,201128,205297,5890,0,09:55:58.554750
56266,49923,201136,205303,5900,0,09:55:58.604642
56290,49918,201126,205290,5910,0,09:55:58.644766
56270,49917,201131,205300,5920,0,09:55:58.675234
56279,49923,201126,205296,5930,0,09:55:58.715696
56260,49922,201118,205293,5940,0,09:55:58.754593
56265,49921,201134,205292,5950,0,09:55:58.794491
56261,49917,201139,205300,5960,0,09:55:58.835377
56258,49914,201111,205296,5970,0,09:55:58.885072
56260,49921,201128,205293,5980,0,09:55:58.915234
56259,49913,201129,205293,5990,0,09:55:58.955274
56255,49914,201123,205285,6000,0,09:55:58.995463
56259,49917,201125,205295,6010,0,09:55:59.034862
56259,49920,201128,205299,6020,0,09:55:59.074872
56261,49919,201127,205301,6030,0,09:55:59.124226
56263,49922,201142,205294,6040,0,09:55:59.154121
56260,49919,201129,205295,6050,0,09:55:59.194648
56238,49915,201128,205294,6060,0,09:55:59.234859
56282,49918,201130,205298,6070,0,09:55:59.274998
56231,49913,201126,205292,6080,0,09:55:59.314195
56253,49910,201101,205294,6090,0,09:55:59.355172
56257,49917,201194,205294,6100,0,09:55:59.394606
56261,49919,201099,205289,6110,0,09:55:59.434871
56260,49918,201129,205296,6120,0,09:55:59.494653
57619,51230,201130,205295,6130,0,09:55:59.515134
57920,51532,201131,205293,6140,0,09:55:59.554842
57914,51522,201127,205290,6150,0,09:55:59.595273
57920,51528,201118,205286,6160,0,09:55:59.634868
57921,51529,201131,205300,6170,0,09:55:59.675140
57954,51534,201126,205296,6180,0,09:55:59.714976
57923,51532,201124,205289,6190,0,09:55:59.754807
57859,51529,201124,205288,6200,0,09:55:59.801848
57931,51524,201147,205287,6210,0,09:55:59.835018
57916,51528,201127,205291,6220,0,09:55:59.874185
57919,51529,201075,205285,6230,0,09:55:59.915138
57920,51529,201146,205284,6240,0,09:55:59.954981
57919,51527,201117,205270,6250,0,09:56:00.004736
57920,51527,201117,205284,6260,0,09:56:00.034441
57919,51525,201122,205287,6270,0,09:56:00.074852
57919,51530,201120,205280,6280,0,09:56:00.115489
57919,51528,201120,205281,6290,0,09:56:00.154789
57920,51525,201114,205275,6300,0,09:56:00.194859
57921,51534,201116,205279,6310,0,09:56:00.234719
57919,51533,201119,205282,6320,0,09:56:00.275341
57943,51528,201119,205279,6330,0,09:56:00.315283
57909,51529,201120,205281,6340,0,09:56:00.354206
57922,51533,201118,205280,6350,0,09:56:00.394497
57912,51523,201139,205279,6360,0,09:56:00.435006
57916,51528,201089,205283,6370,0,09:56:00.475204
57920,51533,201085,205281,6380,0,09:56:00.516288
57918,51526,201112,205274,6390,0,09:56:00.554768
57912,51521,201115,205281,6400,0,09:56:00.594598
57919,51531,201116,205277,6410,0,09:56:00.634587
57917,51527,201115,205279,6420,0,09:56:00.675126
57911,51526,201110,205283,6430,0,09:56:00.714808
57916,51529,201112,205277,6440,0,09:56:00.755290
57918,51529,201112,205279,6450,0,09:56:00.794804
57921,51527,201113,205279,6460,0,09:56:00.834770
57853,51527,201113,205277,6470,0,09:56:00.875461
57976,51529,201114,205281,6480,0,09:56:00.924709
57905,51529,201133,205283,6490,0,09:56:00.954970
57918,51526,201067,205279,6500,0,09:56:00.994890
57915,51528,201170,205281,6510,0,09:56:01.034755
57916,51526,201088,205271,6520,0,09:56:01.074130
57917,51529,201112,205278,6530,0,09:56:01.115548
57913,51527,201111,205283,6540,0,09:56:01.155294
57916,51532,201113,205278,6550,0,09:56:01.194605
57914,51524,201112,205275,6560,0,09:56:01.234860
57914,51529,201117,205284,6570,0,09:56:01.275188
57912,51525,201115,205282,6580,0,09:56:01.314155
57915,51529,201110,205273,6590,0,09:56:01.355459
57961,51525,201112,205277,6600,0,09:56:01.394758
57831,51522,201113,205278,6610,0,09:56:01.434836
57932,51531,201116,205286,6620,0,09:56:01.484773
57908,51530,201147,205280,6630,0,09:56:01.515318
59084,52563,201033,205283,6640,0,09:56:01.555167
59785,53185,201142,205275,6650,0,09:56:01.595176
59783,53188,201104,205271,6660,0,09:56:01.635319
59785,53190,201113,205282,6670,0,09:56:01.675167
59784,53188,201114,205276,6680,0,09:56:01.715464
59780,53183,201111,205270,6690,0,09:56:01.754844
59783,53188,201105,205270,6700,0,09:56:01.795130
59783,53185,201108,205278,6710,0,09:56:01.844659
59785,53188,201108,205277,6720,0,09:56:01.874907
59777,53181,201104,205275,6730,0,09:56:01.915213
59786,53187,201108,205279,6740,0,09:56:01.954838
59813,53182,201106,205268,6750,0,09:56:02.001785
59767,53187,201112,205282,6760,0,09:56:02.034756
59777,53176,201069,205272,6770,0,09:56:02.075172
59781,53188,201139,205277,6780,0,09:56:02.114183
59784,53188,201091,205279,6790,0,09:56:02.154836
59779,53186,201095,205266,6800,0,09:56:02.195991
59778,53182,201106,205272,6810,0,09:56:02.234721
59778,53187,201103,205272,6820,0,09:56:02.275009
59777,53184,201105,205275,6830,0,09:56:02.315471
59785,53192,201104,205271,6840,0,09:56:02.355328
59780,53188,201105,205273,6850,0,09:56:02.395009
59782,53190,201104,205273,6860,0,09:56:02.434865
59785,53186,201102,205269,6870,0,09:56:02.474951
59765,53187,201104,205274,6880,0,09:56:02.515120
59792,53180,201114,205282,6890,0,09:56:02.554893
59763,53182,201108,205281,6900,0,09:56:02.594888
59774,53183,201084,205274,6910,0,09:56:02.634891
59778,53185,201104,205275,6920,0,09:56:02.675294
59773,53178,201117,205275,6930,0,09:56:02.714474
59780,53186,201099,205270,6940,0,09:56:02.755160
59779,53185,201104,205271,6950,0,09:56:02.801095
59771,53177,201102,205274,6960,0,09:56:02.834869
59776,53180,201100,205272,6970,0,09:56:02.875128
59781,53177,201102,205274,6980,0,09:56:02.914015
59774,53178,201103,205274,6990,0,09:56:02.964626
59774,53186,201101,205272,7000,0,09:56:02.995268
59775,53182,201093,205264,7010,0,09:56:03.044608
59751,53182,201101,205277,7020,0,09:56:03.074964
59775,53186,201102,205271,7030,0,09:56:03.114394
59817,53180,201103,205270,7040,0,09:56:03.154979
59760,53186,201106,205272,7050,0,09:56:03.194166
59778,53182,201073,205272,7060,0,09:56:03.235057
59782,53185,201118,205268,7070,0,09:56:03.274951
59777,53177,201079,205269,7080,0,09:56:03.334364
59775,53181,201100,205269,7090,0,09:56:03.355308
59780,53183,201102,205273,7100,0,09:56:03.394223
59780,53184,201100,205271,7110,0,09:56:03.434849
59781,53184,201107,205273,7120,0,09:56:03.475129
59778,53182,201100,205266,7130,0,09:56:03.514837
59780,53183,201107,205273,7140,0,09:56:03.554830
60620,53931,201108,205273,7150,0,09:56:03.594724
61720,54889,201107,205271,7160,0,09:56:03.634830
61661,54880,201103,205265,7170,0,09:56:03.674512
61730,54884,201102,205270,7180,0,09:56:03.715423
61667,54889,201136,205271,7190,0,09:56:03.755131
61695,54881,201070,205269,7200,0,09:56:03.794779
61698,54886,201100,205272,7210,0,09:56:03.834779
61698,54886,201112,205274,7220,0,09:56:03.874911
61697,54885,201104,205271,7230,0,09:56:03.915177
61697,54881,201102,205266,7240,0,09:56:03.955304
61698,54888,201103,205276,7250,0,09:56:03.994829
61696,54884,201104,205268,7260,0,09:56:04.044572
61697,54884,201102,205267,7270,0,09:56:04.075264
61678,54888,201102,205267,7280,0,09:56:04.115323
61697,54888,201106,205276,7290,0,09:56:04.154318
61701,54882,201108,205275,7300,0,09:56:04.194825
61680,54885,201100,205261,7310,0,09:56:04.235463
61696,54883,201097,205261,7320,0,09:56:04.274387
61754,54880,201098,205268,7330,0,09:56:04.315453
61688,54879,201105,205263,7340,0,09:56:04.354471
61699,54887,201096,205274,7350,0,09:56:04.395458
61699,54888,201120,205262,7360,0,09:56:04.444464
61699,54889,201088,205260,7370,0,09:56:04.474808
61694,54879,201097,205262,7380,0,09:56:04.524534
61695,54882,201102,205271,7390,0,09:56:04.554477
61692,54885,201096,205261,7400,0,09:56:04.595479
61695,54881,201096,205260,7410,0,09:56:04.635087
61691,54880,201099,205267,7420,0,09:56:04.675516
61693,54881,201092,205261,7430,0,09:56:04.715120
61689,54877,201092,205268,7440,0,09:56:04.754110
61704,54888,201101,205268,7450,0,09:56:04.804660
61722,54886,201070,205263,7460,0,09:56:04.834841
61714,54878,201102,205273,7470,0,09:56:04.874570
61672,54882,201113,205270,7480,0,09:56:04.914385
61695,54882,201121,205275,7490,0,09:56:04.955221
61699,54889,201043,205262,7500,0,09:56:04.995262
61692,54877,201101,205265,7510,0,09:56:05.035271
61695,54885,201097,205263,7520,0,09:56:05.081583
61690,54871,201100,205266,7530,0,09:56:05.115041
61700,54886,201107,205274,7540,0,09:56:05.158191
61677,54882,201100,205269,7550,0,09:56:05.195143
61665,54881,201097,205272,7560,0,09:56:05.234821
61697,54883,201100,205267,7570,0,09:56:05.274812
61696,54885,201097,205268,7580,0,09:56:05.314960
61724,54883,201093,205263,7590,0,09:56:05.354930
61680,54886,201092,205255,7600,0,09:56:05.394891
61641,54883,201095,205261,7610,0,09:56:05.435558
61758,54885,201108,205268,7620,0,09:56:05.474450
61687,54877,201045,205259,7630,0,09:56:05.544265
61696,54884,201087,205262,7640,0,09:56:05.556235
61693,54885,201137,205270,7650,0,09:56:05.595128
62176,55311,201088,205267,7660,0,09:56:05.634735
63621,56589,201093,205266,7670,0,09:56:05.674657
63621,56598,201091,205261,7680,0,09:56:05.714797
63620,56590,201094,205260,7690,0,09:56:05.755227
63620,56592,201088,205260,7700,0,09:56:05.795308
63616,56589,201086,205262,7710,0,09:56:05.834804
63617,56594,201089,205264,7720,0,09:56:05.875300
63618,56593,201092,205266,7730,0,09:56:05.915178
63602,56591,201092,205263,7740,0,09:56:05.955475
63648,56600,201088,205261,7750,0,09:56:06.001444
63637,56591,201089,205260,7760,0,09:56:06.034786
63599,56596,201093,205258,7770,0,09:56:06.075315
63620,56591,201156,205271,7780,0,09:56:06.114825
63619,56591,201107,205258,7790,0,09:56:06.154567
63621,56595,201075,205259,7800,0,09:56:06.195476
63618,56591,201091,205260,7810,0,09:56:06.234817
63617,56590,201092,205259,7820,0,09:56:06.281451
63618,56589,201088,205252,7830,0,09:56:06.314445
63615,56581,201085,205255,7840,0,09:56:06.354943
63619,56592,201084,205256,7850,0,09:56:06.395133
63611,56583,201088,205256,7860,0,09:56:06.444222
63617,56591,201091,205260,7870,0,09:56:06.484584
63625,56588,201086,205261,7880,0,09:56:06.514427
63630,56589,201081,205251,7890,0,09:56:06.554958
63583,56583,201089,205250,7900,0,09:56:06.595014
63612,56593,201121,205253,7910,0,09:56:06.635404
63616,56589,201078,205254,7920,0,09:56:06.674828
63618,56587,201084,205247,7930,0,09:56:06.715129
63617,56593,201087,205262,7940,0,09:56:06.755273
63617,56587,201088,205255,7950,0,09:56:06.795116
63612,56585,201086,205254,7960,0,09:56:06.834727
63619,56589,201094,205264,7970,0,09:56:06.874801
63616,56591,201083,205251,7980,0,09:56:06.914978
63616,56588,201083,205259,7990,0,09:56:06.955214
63611,56582,201086,205254,8000,0,09:56:06.994756
63614,56589,201082,205250,8010,0,09:56:07.035678
63616,56590,201082,205256,8020,0,09:56:07.075151
63647,56588,201092,205253,8030,0,09:56:07.115211
63588,56590,201083,205258,8040,0,09:56:07.154423
63654,56593,201089,205263,8050,0,09:56:07.195148
63586,56590,201091,205262,8060,0,09:56:07.235674
63620,56597,201071,205267,8070,0,09:56:07.275293
63620,56595,201141,205271,8080,0,09:56:07.315031
63617,56593,201076,205270,8090,0,09:56:07.354527
63620,56594,201095,205270,8100,0,09:56:07.395454
63615,56586,201093,205266,8110,0,09:56:07.434835
63620,56593,201094,205266,8120,0,09:56:07.475102
63618,56590,201089,205263,8130,0,09:56:07.515113
63617,56592,201084,205255,8140,0,09:56:07.555181
63619,56593,201092,205272,8150,0,09:56:07.595118
63624,56598,201087,205264,8160,0,09:56:07.634857
63742,56697,201089,205263,8170,0,09:56:07.684755
65543,58393,201087,205262,8180,0,09:56:07.714964
65566,58399,201088,205267,8190,0,09:56:07.754762
65514,58400,201100,205261,8200,0,09:56:07.795205
65536,58394,201103,205264,8210,0,09:56:07.834625
65538,58398,201039,205262,8220,0,09:56:07.881565
65537,58394,201118,205258,8230,0,09:56:07.913987
65538,58399,201084,205255,8240,0,09:56:07.954874
65540,58401,201091,205261,8250,0,09:56:07.994977
65536,58398,201088,205260,8260,0,09:56:08.034661
65535,58394,201090,205258,8270,0,09:56:08.075214
65538,58395,201087,205263,8280,0,09:56:08.114824
65538,58402,201089,205267,8290,0,09:56:08.154827
65539,58400,201085,205256,8300,0,09:56:08.194902
65538,58395,201089,205263,8310,0,09:56:08.234828
65536,58401,201090,205263,8320,0,09:56:08.274163
65509,58395,201083,205258,8330,0,09:56:08.315295
65598,58400,201089,205263,8340,0,09:56:08.354774
65523,58401,201057,205262,8350,0,09:56:08.395206
65537,58394,201057,205253,8360,0,09:56:08.434835
65541,58400,201172,205258,8370,0,09:56:08.475125
65537,58399,201041,205257,8380,0,09:56:08.515112
65540,58401,201086,205259,8390,0,09:56:08.555165
65532,58390,201091,205262,8400,0,09:56:08.594840
65535,58396,201087,205260,8410,0,09:56:08.645247
65540,58398,201090,205261,8420,0,09:56:08.675050
65543,58392,201089,205262,8430,0,09:56:08.714924
65537,58396,201092,205256,8440,0,09:56:08.755042
65538,58400,201091,205266,8450,0,09:56:08.795835
65531,58393,201083,205261,8460,0,09:56:08.834842
65564,58402,201079,205259,8470,0,09:56:08.874421
65505,58393,201092,205263,8480,0,09:56:08.915384
65532,58393,201117,205254,8490,0,09:56:08.964382
65537,58395,201103,205259,8500,0,09:56:08.994982
65539,58399,201079,205253,8510,0,09:56:09.034850
65535,58393,201088,205257,8520,0,09:56:09.075292
65536,58395,201088,205252,8530,0,09:56:09.115129
65539,58397,201090,205258,8540,0,09:56:09.165235
65534,58392,201084,205255,8550,0,09:56:09.194980
65542,58404,201086,205263,8560,0,09:56:09.234850
65541,58405,201080,205256,8570,0,09:56:09.275206
65535,58395,201082,205258,8580,0,09:56:09.314985
65534,58394,201084,205252,8590,0,09:56:09.355019
65557,58395,201086,205254,8600,0,09:56:09.394847
65498,58399,201093,205264,8610,0,09:56:09.434831
65586,58397,201088,205258,8620,0,09:56:09.474481
65525,58397,201116,205259,8630,0,09:56:09.514840
65536,58396,201028,205252,8640,0,09:56:09.555021
65536,58392,201131,205255,8650,0,09:56:09.595826
65541,58399,201064,205256,8660,0,09:56:09.634851
65533,58397,201084,205254,8670,0,09:56:09.675029
67173,59851,201086,205252,8680,0,09:56:09.714903
67412,60062,201086,205256,8690,0,09:56:09.754451
67410,60060,201091,205263,8700,0,09:56:09.794836
67407,60059,201086,205255,8710,0,09:56:09.834788
67405,60054,201087,205252,8720,0,09:56:09.875295
67409,60061,201082,205255,8730,0,09:56:09.915149
67409,60058,201088,205265,8740,0,09:56:09.954124
67394,60054,201083,205257,8750,0,09:56:09.995015
67400,60062,201085,205253,8760,0,09:56:10.034908
67405,60059,201086,205258,8770,0,09:56:10.074661
67402,60056,201098,205265,8780,0,09:56:10.114783
67409,60061,201110,205263,8790,0,09:56:10.154922
67406,60060,201099,205253,8800,0,09:56:10.195114
67405,60057,201085,205251,8810,0,09:56:10.234834
67408,60061,201083,205256,8820,0,09:56:10.274825
67402,60054,201085,205258,8830,0,09:56:10.314930
67405,60058,201083,205251,8840,0,09:56:10.354290
67402,60052,201085,205258,8850,0,09:56:10.395140
67396,60049,201084,205251,8860,0,09:56:10.434830
67402,60055,201080,205258,8870,0,09:56:10.474837
67414,60058,201079,205249,8880,0,09:56:10.515162
67405,60061,201080,205259,8890,0,09:56:10.554569
67400,60059,201077,205249,8900,0,09:56:10.595133
67440,60057,201092,205249,8910,0,09:56:10.634823
67397,60057,201057,205244,8920,0,09:56:10.675397
67400,60050,201055,205254,8930,0,09:56:10.715168
67400,60054,201074,205246,8940,0,09:56:10.753940
67400,60049,201067,205250,8950,0,09:56:10.795201
67406,60060,201078,205248,8960,0,09:56:10.835727
67402,60055,201079,205253,8970,0,09:56:10.874841
67408,60062,201083,205256,8980,0,09:56:10.915369
67407,60063,201082,205257,8990,0,09:56:10.954993
67400,60056,201078,205251,9000,0,09:56:10.994434
67403,60055,201079,205250,9010,0,09:56:11.034815
67403,60051,201078,205251,9020,0,09:56:11.074829
67406,60052,201077,205249,9030,0,09:56:11.114464
67399,60055,201078,205252,9040,0,09:56:11.155456
67438,60054,201086,205259,9050,0,09:56:11.194100
67383,60057,201097,205251,9060,0,09:56:11.234851
67406,60055,201078,205258,9070,0,09:56:11.274827
67401,60054,201108,205252,9080,0,09:56:11.314652
67404,60055,201064,205251,9090,0,09:56:11.354114
67402,60051,201080,205250,9100,0,09:56:11.395301
67405,60057,201081,205250,9110,0,09:56:11.434833
67402,60055,201080,205252,9120,0,09:56:11.474256
67403,60054,201074,205246,9130,0,09:56:11.514828
67401,60052,201074,205252,9140,0,09:56:11.555088
67403,60052,201067,205238,9150,0,09:56:11.595136
67407,60059,201075,205247,9160,0,09:56:11.635286
67406,60057,201073,205247,9170,0,09:56:11.674939
67399,60056,201079,205254,9180,0,09:56:11.714971
68523,61065,201078,205248,9190,0,09:56:11.755210
69254,61683,201077,205254,9200,0,09:56:11.795142
69221,61674,201103,205254,9210,0,09:56:11.834827
69226,61674,201048,205246,9220,0,09:56:11.885930
69222,61669,201107,205248,9230,0,09:56:11.915148
69226,61677,201062,205251,9240,0,09:56:11.954826
69221,61670,201071,205244,9250,0,09:56:11.995199
69219,61668,201076,205245,9260,0,09:56:12.034841
69227,61679,201075,205247,9270,0,09:56:12.075197
69221,61671,201072,205253,9280,0,09:56:12.125005
69221,61669,201073,205243,9290,0,09:56:12.155132
69218,61676,201078,205244,9300,0,09:56:12.194148
69223,61678,201073,205253,9310,0,09:56:12.235367
69202,61672,201070,205246,9320,0,09:56:12.275261
69184,61665,201076,205252,9330,0,09:56:12.314536
69253,61675,201074,205251,9340,0,09:56:12.354428
69198,61669,201091,205238,9350,0,09:56:12.394773
69219,61666,201070,205240,9360,0,09:56:12.445315
69218,61672,201087,205245,9370,0,09:56:12.475108
69220,61668,201055,205245,9380,0,09:56:12.524196
69227,61674,201076,205251,9390,0,09:56:12.554583
69225,61675,201078,205250,9400,0,09:56:12.594604
69228,61680,201071,205247,9410,0,09:56:12.634544
69219,61664,201075,205239,9420,0,09:56:12.674532
69219,61670,201075,205249,9430,0,09:56:12.714489
69225,61669,201075,205244,9440,0,09:56:12.754571
69220,61669,201073,205246,9450,0,09:56:12.794086
69225,61672,201076,205244,9460,0,09:56:12.834569
69221,61672,201073,205242,9470,0,09:56:12.874548
69216,61673,201073,205245,9480,0,09:56:12.925480
69212,61668,201097,205244,9490,0,09:56:12.954603
69216,61668,201044,205251,9500,0,09:56:13.004402
69219,61665,201046,205234,9510,0,09:56:13.034593
69225,61668,201116,205247,9520,0,09:56:13.074596
69220,61671,201075,205247,9530,0,09:56:13.114617
69219,61670,201072,205244,9540,0,09:56:13.154604
69216,61664,201078,205250,9550,0,09:56:13.194017
69226,61673,201072,205245,9560,0,09:56:13.234758
69221,61670,201074,205244,9570,0,09:56:13.274607
69215,61664,201075,205248,9580,0,09:56:13.314584
69220,61667,201074,205249,9590,0,09:56:13.354590
69223,61671,201069,205250,9600,0,09:56:13.405430
69203,61671,201073,205243,9610,0,09:56:13.434593
69200,61662,201068,205238,9620,0,09:56:13.474835
69268,61671,201065,205238,9630,0,09:56:13.514597
69201,61664,201093,205243,9640,0,09:56:13.554622
69221,61669,201032,205243,9650,0,09:56:13.594597
69214,61662,201122,205249,9660,0,09:56:13.634593
69221,61672,201053,205241,9670,0,09:56:13.674603
69220,61665,201071,205244,9680,0,09:56:13.714591
69219,61664,201067,205235,9690,0,09:56:13.754545
70059,62415,201071,205244,9700,0,09:56:13.800749
71138,63373,201066,205233,9710,0,09:56:13.834659
71133,63366,201071,205238,9720,0,09:56:13.885320
71136,63375,201069,205236,9730,0,09:56:13.925015
71135,63374,201075,205249,9740,0,09:56:13.974662
71151,63370,201065,205245,9750,0,09:56:13.994601
71164,63371,201070,205245,9760,0,09:56:14.034252
71107,63368,201074,205241,9770,0,09:56:14.074705
71145,63367,201074,205245,9780,0,09:56:14.114597
71132,63368,201018,205240,9790,0,09:56:14.154633
71135,63371,201033,205245,9800,0,09:56:14.195430
71137,63374,201089,205239,9810,0,09:56:14.234934
71136,63376,201053,205241,9820,0,09:56:14.274616
71135,63371,201068,205232,9830,0,09:56:14.314589
71139,63377,201070,205245,9840,0,09:56:14.354924
71125,63359,201069,205241,9850,0,09:56:14.394596
71135,63369,201071,205239,9860,0,09:56:14.434867
71135,63372,201068,205240,9870,0,09:56:14.474290
71134,63367,201071,205245,9880,0,09:56:14.514184
71139,63376,201071,205238,9890,0,09:56:14.564546
71134,63365,201072,205237,9900,0,09:56:14.594467
71104,63374,201071,205244,9910,0,09:56:14.634618
71207,63372,201068,205239,9920,0,09:56:14.674599
71113,63372,201080,205229,9930,0,09:56:14.714612
71135,63371,201065,205241,9940,0,09:56:14.754592
71136,63374,201055,205234,9950,0,09:56:14.794567
71131,63367,201049,205240,9960,0,09:56:14.834569
71136,63373,201067,205242,9970,0,09:56:14.873834
71134,63373,201067,205242,9980,0,09:56:14.914597
71130,63370,201068,205240,9990,0,09:56:14.954792
71132,63368,201072,205248,10000,0,09:56:14.994600
71133,63372,201067,205239,10010,0,09:56:15.044417
71121,63369,201064,205233,10020,0,09:56:15.074569
71130,63369,201061,205239,10030,0,09:56:15.114615
71149,63373,201060,205235,10040,0,09:56:15.154632
71127,63365,201051,205236,10050,0,09:56:15.194562
71122,63368,201062,205234,10060,0,09:56:15.234609
71140,63369,201087,205235,10070,0,09:56:15.274600
71129,63367,201043,205241,10080,0,09:56:15.314605
71132,63371,201042,205232,10090,0,09:56:15.374584
71130,63366,201074,205237,10100,0,09:56:15.394778
71136,63373,201067,205246,10110,0,09:56:15.444130
71132,63370,201064,205233,10120,0,09:56:15.474569
71132,63368,201068,205241,10130,0,09:56:15.514374
71134,63369,201060,205236,10140,0,09:56:15.554571
71129,63364,201063,205234,10150,0,09:56:15.594929
71130,63364,201063,205237,10160,0,09:56:15.634606
71136,63373,201066,205237,10170,0,09:56:15.674596
71151,63371,201063,205236,10180,0,09:56:15.714584
71130,63372,201067,205237,10190,0,09:56:15.754588
71135,63369,201061,205229,10200,0,09:56:15.794574
71628,63781,201065,205243,10210,0,09:56:15.834641
72970,65006,201027,205229,10220,0,09:56:15.874759
72982,65009,201062,205238,10230,0,09:56:15.904478
72980,65013,201064,205236,10240,0,09:56:15.954397
72981,65011,201041,205223,10250,0,09:56:15.994585
72981,65011,201057,205233,10260,0,09:56:16.034622
72979,65012,201060,205236,10270,0,09:56:16.074562
72982,65016,201059,205232,10280,0,09:56:16.114582
72983,65009,201056,205225,10290,0,09:56:16.145216
72978,65009,201061,205232,10300,0,09:56:16.184816
72987,65019,201059,205232,10310,0,09:56:16.225437
72982,65011,201062,205233,10320,0,09:56:16.265087
72989,65012,201055,205227,10330,0,09:56:16.304103
73003,65021,201064,205236,10340,0,09:56:16.345171
72952,65014,201064,205236,10350,0,09:56:16.384750
72957,65012,201071,205226,10360,0,09:56:16.424642
72984,65018,201059,205232,10370,0,09:56:16.464533
72984,65016,201057,205237,10380,0,09:56:16.505182
72980,65008,201071,205233,10390,0,09:56:16.545046
72983,65014,201061,205236,10400,0,09:56:16.584939
72982,65013,201061,205238,10410,0,09:56:16.623984
72977,65004,201058,205236,10420,0,09:56:16.665102
72979,65007,201058,205229,10430,0,09:56:16.704449
72980,65010,201058,205231,10440,0,09:56:16.744617
72977,65006,201060,205228,10450,0,09:56:16.784514
72973,65008,201059,205235,10460,0,09:56:16.824855
72998,65015,201057,205238,10470,0,09:56:16.865459
72965,65015,201053,205227,10480,0,09:56:16.904750
72963,65008,201052,205224,10490,0,09:56:16.945256
73022,65017,201063,205230,10500,0,09:56:16.984776
72977,65012,201015,205234,10510,0,09:56:17.025175
72980,65011,201048,205224,10520,0,09:56:17.064791
72983,65012,201093,205227,10530,0,09:56:17.105289
72974,65009,201047,205234,10540,0,09:56:17.144843
72976,65005,201047,205218,10550,0,09:56:17.184501
72974,65002,201057,205232,10560,0,09:56:17.224816
72986,65015,201061,205234,10570,0,09:56:17.264786
72984,65015,201061,205230,10580,0,09:56:17.305434
72979,65005,201063,205234,10590,0,09:56:17.345284
72984,65016,201061,205229,10600,0,09:56:17.384769
72978,65011,201057,205233,10610,0,09:56:17.425346
72932,65012,201055,205232,10620,0,09:56:17.465122
73003,65006,201054,205230,10630,0,09:56:17.505275
72995,65019,201053,205226,10640,0,09:56:17.545773
72960,65016,201060,205221,10650,0,09:56:17.584670
72977,65005,201090,205237,10660,0,09:56:17.624085
72981,65016,201075,205233,10670,0,09:56:17.665434
72980,65008,201041,205225,10680,0,09:56:17.704274
72978,65011,201048,205222,10690,0,09:56:17.744177
72976,65010,201057,205228,10700,0,09:56:17.785388
72978,65009,201056,205232,10710,0,09:56:17.824958
73092,65110,201057,205234,10720,0,09:56:17.865149
74713,66684,201056,205233,10730,0,09:56:17.904417
74716,66688,201059,205228,10740,0,09:56:17.945306
74713,66681,201055,205225,10750,0,09:56:17.994724
74726,66687,201058,205233,10760,0,09:56:18.024643
74732,66693,201058,205230,10770,0,09:56:18.064533
74700,66676,201055,205232,10780,0,09:56:18.104784
74703,66683,201096,205228,10790,0,09:56:18.144399
74715,66686,201050,205231,10800,0,09:56:18.184538
74710,66684,201011,205226,10810,0,09:56:18.224392
74712,66682,201049,205222,10820,0,09:56:18.265011
74707,66678,201051,205231,10830,0,09:56:18.304545
74707,66681,201057,205229,10840,0,09:56:18.345310
74711,66686,201053,205233,10850,0,09:56:18.384660
74708,66678,201053,205230,10860,0,09:56:18.425106
74707,66677,201054,205232,10870,0,09:56:18.465184
74712,66678,201053,205229,10880,0,09:56:18.511500
74709,66679,201052,205224,10890,0,09:56:18.545116
74711,66683,201049,205223,10900,0,09:56:18.584784
74669,66684,201051,205226,10910,0,09:56:18.624553
74694,66681,201048,205224,10920,0,09:56:18.664615
74770,66679,201047,205215,10930,0,09:56:18.705421
74692,66676,201049,205226,10940,0,09:56:18.745079
74709,66678,201062,205220,10950,0,09:56:18.785361
74711,66684,201098,205228,10960,0,09:56:18.824414
74710,66680,201009,205222,10970,0,09:56:18.865614
74704,66672,201052,205224,10980,0,09:56:18.904825
74707,66681,201041,205216,10990,0,09:56:18.944442
74703,66673,201042,205218,11000,0,09:56:18.984876
74710,66677,201048,205220,11010,0,09:56:19.024805
74726,66676,201045,205218,11020,0,09:56:19.074069
74708,66681,201050,205225,11030,0,09:56:19.114158
74712,66679,201049,205224,11040,0,09:56:19.155184
74709,66676,201053,205222,11050,0,09:56:19.185581
74734,66676,201048,205217,11060,0,09:56:19.225295
74710,66681,201051,205222,11070,0,09:56:19.264144
74680,66679,201062,205222,11080,0,09:56:19.305530
74706,66675,201041,205215,11090,0,09:56:19.354476
74704,66671,200978,205206,11100,0,09:56:19.385238
74704,66673,201064,205219,11110,0,09:56:19.425290
74708,66677,201023,205210,11120,0,09:56:19.464199
74702,66675,201041,205210,11130,0,09:56:19.504254
74704,66673,201035,205207,11140,0,09:56:19.544409
74704,66675,201039,205214,11150,0,09:56:19.584325
74701,66675,201041,205220,11160,0,09:56:19.624246
74707,66679,201043,205218,11170,0,09:56:19.665411
74702,66671,201036,205209,11180,0,09:56:19.705263
74699,66673,201039,205215,11190,0,09:56:19.745100
74671,66669,201042,205221,11200,0,09:56:19.784790
74768,66669,201041,205218,11210,0,09:56:19.824276
74681,66671,201043,205216,11220,0,09:56:19.865087
76394,68177,201039,205208,11230,0,09:56:19.905430
76630,68386,201065,205213,11240,0,09:56:19.945440
76633,68390,201024,205219,11250,0,09:56:19.984832
76640,68397,201044,205222,11260,0,09:56:20.025274
76634,68387,201036,205214,11270,0,09:56:20.064805
76633,68388,201037,205209,11280,0,09:56:20.104993
76637,68394,201032,205209,11290,0,09:56:20.144793
76635,68390,201038,205213,11300,0,09:56:20.184642
76629,68390,201037,205211,11310,0,09:56:20.225098
76634,68389,201035,205212,11320,0,09:56:20.264805
76641,68395,201035,205211,11330,0,09:56:20.304211
76655,68392,201033,205206,11340,0,09:56:20.354570
76652,68392,201034,205212,11350,0,09:56:20.384753
76627,68387,201040,205206,11360,0,09:56:20.424258
76633,68389,201052,205208,11370,0,09:56:20.465089
76636,68392,201003,205208,11380,0,09:56:20.504869
76631,68386,201057,205209,11390,0,09:56:20.544839
76635,68386,201032,205203,11400,0,09:56:20.584807
76633,68385,201032,205210,11410,0,09:56:20.625139
76631,68386,201027,205204,11420,0,09:56:20.664255
76638,68390,201030,205201,11430,0,09:56:20.704976
76633,68389,201031,205208,11440,0,09:56:20.744829
76634,68392,201027,205205,11450,0,09:56:20.784813
76631,68388,201030,205204,11460,0,09:56:20.834585
76626,68382,201034,205208,11470,0,09:56:20.864843
76662,68395,201031,205212,11480,0,09:56:20.904241
76590,68388,201028,205212,11490,0,09:56:20.954561
76656,68386,201031,205209,11500,0,09:56:20.984408
76617,68397,201047,205205,11510,0,09:56:21.024108
76628,68387,200946,205204,11520,0,09:56:21.065218
76635,68391,201077,205217,11530,0,09:56:21.104260
76632,68389,201003,205210,11540,0,09:56:21.144377
76638,68394,201027,205202,11550,0,09:56:21.186153
76632,68389,201032,205212,11560,0,09:56:21.225048
76632,68394,201028,205210,11570,0,09:56:21.264941
76632,68396,201028,205205,11580,0,09:56:21.304848
76632,68391,201030,205211,11590,0,09:56:21.344596
76632,68393,201028,205212,11600,0,09:56:21.384949
76636,68398,201028,205205,11610,0,09:56:21.425405
76633,68390,201026,205204,11620,0,09:56:21.464511
76663,68397,201028,205209,11630,0,09:56:21.505242
76654,68393,201024,205207,11640,0,09:56:21.544408
76629,68387,201030,205209,11650,0,09:56:21.584751
76630,68389,201027,205211,11660,0,09:56:21.625108
76631,68386,201012,205207,11670,0,09:56:21.664411
76630,68381,201047,205207,11680,0,09:56:21.705101
76636,68394,201022,205200,11690,0,09:56:21.744266
76631,68385,201034,205209,11700,0,09:56:21.785340
76636,68393,201025,205202,11710,0,09:56:21.841690
76628,68382,201022,205199,11720,0,09:56:21.864498
76629,68386,201026,205206,11730,0,09:56:21.905108
77882,69500,201026,205203,11740,0,09:56:21.945243
78451,70007,201023,205196,11750,0,09:56:21.984787
78452,70013,201023,205204,11760,0,09:56:22.025281
78478,70001,201029,205209,11770,0,09:56:22.065092
78418,69998,201025,205202,11780,0,09:56:22.105138
78472,70003,201025,205200,11790,0,09:56:22.144755
78434,70003,201028,205202,11800,0,09:56:22.184752
78448,70004,200944,205196,11810,0,09:56:22.224258
78453,70004,201096,205204,11820,0,09:56:22.264409
78448,70000,201004,205209,11830,0,09:56:22.314491
78451,70003,201025,205204,11840,0,09:56:22.345247
78450,70001,201027,205202,11850,0,09:56:22.384429
78446,69999,201029,205208,11860,0,09:56:22.424781
78451,70001,201028,205203,11870,0,09:56:22.464252
78451,70005,201030,205209,11880,0,09:56:22.504944
78451,69999,201027,205212,11890,0,09:56:22.545237
78448,70003,201029,205204,11900,0,09:56:22.584780
78487,70008,201026,205207,11910,0,09:56:22.624770
78424,70004,201029,205201,11920,0,09:56:22.664257
78486,70008,201025,205208,11930,0,09:56:22.707941
78429,70003,201022,205192,11940,0,09:56:22.745444
78452,70005,201010,205209,11950,0,09:56:22.784305
78448,70002,201068,205212,11960,0,09:56:22.825169
78446,70004,201007,205201,11970,0,09:56:22.864384
78450,70003,201028,205205,11980,0,09:56:22.904436
78455,70006,201024,205201,11990,0,09:56:22.944971
78452,70003,201027,205194,12000,0,09:56:22.994525
78448,69996,201026,205206,12010,0,09:56:23.025265
78448,70003,201021,205201,12020,0,09:56:23.064257
78462,70004,201027,205207,12030,0,09:56:23.114307
78447,70003,201027,205211,12040,0,09:56:23.145711
78442,69999,201033,205201,12050,0,09:56:23.184771
78440,70001,201024,205208,12060,0,09:56:23.232579
78433,69996,201020,205202,12070,0,09:56:23.264136
78456,69998,201024,205204,12080,0,09:56:23.304266
78439,70003,201026,205203,12090,0,09:56:23.344867
78448,70003,201014,205209,12100,0,09:56:23.384755
78449,70002,201051,205206,12110,0,09:56:23.425309
78449,70006,200999,205195,12120,0,09:56:23.464110
78452,70005,201022,205203,12130,0,09:56:23.505001
78448,70001,201018,205194,12140,0,09:56:23.544798
78447,70002,201019,205200,12150,0,09:56:23.584548
78444,70001,201024,205198,12160,0,09:56:23.624176
78452,70010,201024,205203,12170,0,09:56:23.665129
78451,70002,201025,205203,12180,0,09:56:23.705068
78436,70005,201024,205203,12190,0,09:56:23.746096
78445,70001,201012,205201,12200,0,09:56:23.784753
78422,70008,201015,205195,12210,0,09:56:23.824433
78465,69993,201023,205203,12220,0,09:56:23.865436
78429,69998,201052,205206,12230,0,09:56:23.905267
78449,70001,200992,205204,12240,0,09:56:23.944813
79413,70863,201079,205199,12250,0,09:56:23.994690
80385,71724,200988,205203,12260,0,09:56:24.035035
80382,71720,201025,205204,12270,0,09:56:24.065042
80375,71710,201030,205207,12280,0,09:56:24.104438
80386,71723,201027,205203,12290,0,09:56:24.144510
80384,71721,201022,205202,12300,0,09:56:24.184749
80376,71715,201026,205200,12310,0,09:56:24.224829
80378,71717,201024,205201,12320,0,09:56:24.264794
80381,71718,201021,205199,12330,0,09:56:24.304539
80385,71715,201022,205201,12340,0,09:56:24.354572
80345,71722,201017,205197,12350,0,09:56:24.385179
80393,71724,201024,205205,12360,0,09:56:24.425594
80364,71713,201032,205192,12370,0,09:56:24.465126
80383,71723,201004,205200,12380,0,09:56:24.505779
80381,71720,201013,205199,12390,0,09:56:24.544104
80374,71712,201035,205196,12400,0,09:56:24.585210
80380,71719,201010,205194,12410,0,09:56:24.624095
80386,71722,201018,205194,12420,0,09:56:24.684402
80377,71718,201018,205201,12430,0,09:56:24.705429
80385,71720,201012,205189,12440,0,09:56:24.744397
80381,71718,201016,205198,12450,0,09:56:24.785103
80376,71719,201022,205208,12460,0,09:56:24.834535
80382,71721,201019,205197,12470,0,09:56:24.874529
80374,71716,201018,205193,12480,0,09:56:24.904811
80395,71715,201018,205198,12490,0,09:56:24.944926
80351,71715,201012,205193,12500,0,09:56:24.985819
80412,71721,200996,205194,12510,0,09:56:25.024100
80366,71712,201031,205203,12520,0,09:56:25.065464
80372,71712,200978,205194,12530,0,09:56:25.105241
80375,71715,201055,205194,12540,0,09:56:25.144657
80373,71710,200981,205205,12550,0,09:56:25.184531
80372,71710,201014,205193,12560,0,09:56:25.224404
80371,71708,201017,205197,12570,0,09:56:25.264814
80380,71722,201019,205198,12580,0,09:56:25.314594
80374,71717,201022,205201,12590,0,09:56:25.354609
80399,71712,201017,205199,12600,0,09:56:25.384530
80378,71717,201018,205202,12610,0,09:56:25.424971
80374,71721,201016,205202,12620,0,09:56:25.533679
80417,71716,201021,205204,12630,0,09:56:25.541658
80364,71720,201022,205197,12640,0,09:56:25.544649
80368,71717,201017,205201,12650,0,09:56:25.586537
80371,71714,201050,205192,12660,0,09:56:25.624437
80379,71722,201009,205201,12670,0,09:56:25.664520
80375,71717,200991,205198,12680,0,09:56:25.704225
80375,71719,201083,205195,12690,0,09:56:25.744256
80375,71716,201007,205201,12700,0,09:56:25.795170
80377,71717,201007,205197,12710,0,09:56:25.841633
80376,71718,201012,205201,12720,0,09:56:25.874546
80377,71710,201014,205191,12730,0,09:56:25.905444
80376,71710,201009,205188,12740,0,09:56:25.946335
80377,71714,200982,205191,12750,0,09:56:25.984234
80982,72240,201016,205199,12760,0,09:56:26.024126
82266,73396,201012,205190,12770,0,09:56:26.065017
82225,73396,201036,205192,12780,0,09:56:26.104086
82259,73391,201003,205193,12790,0,09:56:26.164169
82325,73389,201030,205193,12800,0,09:56:26.185614
82235,73387,201050,205197,12810,0,09:56:26.224519
82265,73394,201037,205196,12820,0,09:56:26.274754
82271,73396,200997,205191,12830,0,09:56:26.314278
82258,73389,200986,205183,12840,0,09:56:26.354273
82264,73392,201014,205194,12850,0,09:56:26.385534
82257,73385,201010,205194,12860,0,09:56:26.424803
82258,73386,201011,205183,12870,0,09:56:26.484902
82257,73384,201019,205191,12880,0,09:56:26.504847
82276,73389,201015,205193,12890,0,09:56:26.544740
82259,73385,201015,205185,12900,0,09:56:26.595011
82263,73391,201015,205185,12910,0,09:56:26.644968
82291,73387,201017,205192,12920,0,09:56:26.664418
82252,73388,201015,205192,12930,0,09:56:26.705092
82201,73389,201012,205192,12940,0,09:56:26.755044
82297,73395,201022,205201,12950,0,09:56:26.795122
82257,73388,200984,205198,12960,0,09:56:26.834918
82254,73379,200996,205192,12970,0,09:56:26.864887
82255,73384,201035,205191,12980,0,09:56:26.905122
82259,73386,201003,205190,12990,0,09:56:26.945291
82258,73386,201010,205189,13000,0,09:56:26.985183
82263,73391,201009,205191,13010,0,09:56:27.023930
82261,73389,201011,205191,13020,0,09:56:27.064471
82259,73390,201005,205189,13030,0,09:56:27.124267
82256,73382,201005,205185,13040,0,09:56:27.154303
82261,73391,201008,205189,13050,0,09:56:27.184478
82254,73383,201009,205194,13060,0,09:56:27.225404
82245,73381,201003,205182,13070,0,09:56:27.274444
82265,73386,201002,205180,13080,0,09:56:27.314547
82308,73388,201009,205193,13090,0,09:56:27.380236
82220,73386,201021,205191,13100,0,09:56:27.398187
82255,73384,201001,205191,13110,0,09:56:27.425116
82261,73391,201037,205191,13120,0,09:56:27.464539
82253,73385,200992,205191,13130,0,09:56:27.504817
82259,73389,201011,205191,13140,0,09:56:27.543962
82261,73390,201012,205192,13150,0,09:56:27.594828
82265,73390,201011,205188,13160,0,09:56:27.625444
82258,73383,201010,205191,13170,0,09:56:27.664755
82263,73394,201008,205182,13180,0,09:56:27.704804
82262,73385,201010,205188,13190,0,09:56:27.755240
82257,73382,201015,205194,13200,0,09:56:27.794137
82256,73384,201013,205194,13210,0,09:56:27.835026
82285,73392,201014,205193,13220,0,09:56:27.864548
82251,73398,201014,205195,13230,0,09:56:27.905175
82296,73391,201017,205200,13240,0,09:56:27.944984
82240,73391,201044,205197,13250,0,09:56:27.984850
82263,73396,200988,205197,13260,0,09:56:28.024774
82503,73611,201033,205196,13270,0,09:56:28.064636
84203,75274,200998,205191,13280,0,09:56:28.104530
84204,75281,201012,205188,13290,0,09:56:28.154395
84202,75278,201011,205188,13300,0,09:56:28.184513
84200,75272,201010,205189,13310,0,09:56:28.224181
84200,75277,201012,205194,13320,0,09:56:28.265629
84200,75276,201007,205185,13330,0,09:56:28.305373
84213,75270,201003,205184,13340,0,09:56:28.344219
84198,75276,201004,205186,13350,0,09:56:28.385081
84206,75268,201002,205184,13360,0,09:56:28.424137
84192,75279,201040,205193,13370,0,09:56:28.464531
84222,75274,201010,205186,13380,0,09:56:28.504550
84194,75276,201011,205184,13390,0,09:56:28.544087
84200,75270,200996,205187,13400,0,09:56:28.585541
84196,75268,200993,205192,13410,0,09:56:28.624133
84193,75271,201019,205187,13420,0,09:56:28.664557
84199,75279,201002,205181,13430,0,09:56:28.721875
84202,75273,201012,205189,13440,0,09:56:28.764135
84203,75275,201004,205175,13450,0,09:56:28.784850
84202,75274,201008,205183,13460,0,09:56:28.824858
84196,75274,201009,205187,13470,0,09:56:28.874604
84198,75271,201005,205177,13480,0,09:56:28.904898
84173,75262,201001,205178,13490,0,09:56:28.944533
84203,75278,201007,205180,13500,0,09:56:29.004402
84164,75272,201008,205185,13510,0,09:56:29.024103
84107,75269,201008,205181,13520,0,09:56:29.064008
84268,75274,201012,205188,13530,0,09:56:29.105278
84166,75269,201013,205185,13540,0,09:56:29.144106
84196,75274,200978,205190,13550,0,09:56:29.185659
84194,75270,201054,205184,13560,0,09:56:29.244133
84207,75281,200977,205184,13570,0,09:56:29.264073
84195,75271,201006,205184,13580,0,09:56:29.304613
84192,75267,201003,205182,13590,0,09:56:29.355436
84195,75274,201000,205178,13600,0,09:56:29.385669
84195,75267,201000,205185,13610,0,09:56:29.425266
84194,75269,201001,205183,13620,0,09:56:29.464414
84192,75263,201001,205179,13630,0,09:56:29.504917
84196,75263,201004,205180,13640,0,09:56:29.544289
84230,75274,201002,205183,13650,0,09:56:29.585661
84192,75272,201001,205185,13660,0,09:56:29.624823
84147,75266,201004,205188,13670,0,09:56:29.664219
84199,75265,201005,205184,13680,0,09:56:29.725214
84192,75270,200991,205183,13690,0,09:56:29.744590
84196,75272,200994,205189,13700,0,09:56:29.785641
84191,75270,201090,205184,13710,0,09:56:29.824751
84188,75263,200990,205181,13720,0,09:56:29.874812
84191,75269,201003,205181,13730,0,09:56:29.905180
84198,75276,201007,205185,13740,0,09:56:29.944569
84198,75274,201002,205177,13750,0,09:56:29.984853
84195,75269,201005,205187,13760,0,09:56:30.024078
84200,75273,201005,205186,13770,0,09:56:30.065440
86007,76883,200998,205177,13780,0,09:56:30.115848
86165,76985,201001,205182,13790,0,09:56:30.143827
86130,76994,201003,205187,13800,0,09:56:30.184875
86150,76984,200979,205188,13810,0,09:56:30.244646
86098,76978,201041,205191,13820,0,09:56:30.264654
86127,76993,200971,205188,13830,0,09:56:30.304557
86122,76985,201014,205184,13840,0,09:56:30.355339
86121,76981,201005,205188,13850,0,09:56:30.394745
86121,76982,201007,205184,13860,0,09:56:30.424592
86123,76986,201001,205182,13870,0,09:56:30.464687
86123,76988,201001,205184,13880,0,09:56:30.505375
86120,76985,200999,205184,13890,0,09:56:30.545575
86117,76979,201007,205188,13900,0,09:56:30.584541
86112,76977,201000,205180,13910,0,09:56:30.624812
86109,76986,201001,205184,13920,0,09:56:30.664807
86140,76981,201003,205178,13930,0,09:56:30.734523
86111,76983,200999,205179,13940,0,09:56:30.744804
86055,76984,201001,205185,13950,0,09:56:30.795114
86158,76985,200999,205182,13960,0,09:56:30.824508
86114,76983,200991,205171,13970,0,09:56:30.874459
86119,76986,201021,205183,13980,0,09:56:30.904509
86121,76990,201045,205179,13990,0,09:56:30.944631
86119,76980,200968,205180,14000,0,09:56:30.985630
86119,76985,200996,205174,14010,0,09:56:31.024873
86120,76982,200997,205174,14020,0,09:56:31.064491
86117,76981,201002,205185,14030,0,09:56:31.105566
86132,76980,201001,205180,14040,0,09:56:31.154491
86134,76980,200999,205179,14050,0,09:56:31.185636
86120,76984,200999,205178,14060,0,09:56:31.224513
86115,76982,201001,205184,14070,0,09:56:31.264514
86123,76981,200998,205176,14080,0,09:56:31.304287
86106,76986,201002,205178,14090,0,09:56:31.355496
86118,76985,201015,205185,14100,0,09:56:31.394514
86121,76984,201023,205181,14110,0,09:56:31.424493
86113,76975,200975,205184,14120,0,09:56:31.485391
86121,76989,201053,205185,14130,0,09:56:31.505287
86119,76982,201016,205177,14140,0,09:56:31.544462
86116,76979,201004,205188,14150,0,09:56:31.584355
86118,76983,200999,205178,14160,0,09:56:31.634493
86125,76990,200999,205182,14170,0,09:56:31.675479
86117,76980,201001,205181,14180,0,09:56:31.745101
86124,76985,201001,205178,14190,0,09:56:31.764258
86099,76979,201002,205176,14200,0,09:56:31.785482
86115,76986,201005,205183,14210,0,09:56:31.844482
86135,76982,201009,205188,14220,0,09:56:31.875032
86132,76988,201003,205181,14230,0,09:56:31.915111
86105,76981,201005,205180,14240,0,09:56:31.965383
86129,76988,200994,205185,14250,0,09:56:31.985604
86101,76980,200985,205170,14260,0,09:56:32.025699
86108,76977,200963,205182,14270,0,09:56:32.065716
86123,76987,201035,205180,14280,0,09:56:32.115250
87487,78198,200970,205175,14290,0,09:56:32.143889
87948,78611,201001,205179,14300,0,09:56:32.224916
87941,78602,200996,205173,14310,0,09:56:32.225935
87948,78607,200999,205180,14320,0,09:56:32.264531
87949,78608,201000,205177,14330,0,09:56:32.334583
87945,78603,201005,205181,14340,0,09:56:32.354255
87939,78603,201001,205177,14350,0,09:56:32.396143
87939,78596,201003,205178,14360,0,09:56:32.425065
87942,78600,201006,205184,14370,0,09:56:32.475724
87897,78604,200999,205181,14380,0,09:56:32.504649
87918,78607,201000,205180,14390,0,09:56:32.594407
87981,78607,201014,205184,14400,0,09:56:32.595404
87937,78604,200960,205175,14410,0,09:56:32.634302
87939,78604,200997,205185,14420,0,09:56:32.705109
87941,78608,201021,205184,14430,0,09:56:32.705109
87941,78609,200992,205177,14440,0,09:56:32.745516
87941,78604,201000,205177,14450,0,09:56:32.784531
87936,78604,200998,205177,14460,0,09:56:32.855027
87945,78607,201000,205183,14470,0,09:56:32.856023
87937,78600,201009,205184,14480,0,09:56:32.914553
87937,78599,200996,205180,14490,0,09:56:32.965063
87952,78610,201002,205182,14500,0,09:56:32.984524
87945,78604,200969,205178,14510,0,09:56:33.025210
87940,78599,200994,205170,14520,0,09:56:33.074593
87923,78601,201057,205187,14530,0,09:56:33.114507
87961,78595,201002,205178,14540,0,09:56:33.154360
87913,78604,200988,205181,14550,0,09:56:33.225061
87936,78597,200990,205174,14560,0,09:56:33.226080
87943,78611,201057,205175,14570,0,09:56:33.264166
87943,78603,200979,205172,14580,0,09:56:33.335295
87935,78593,200993,205175,14590,0,09:56:33.336280
87913,78596,200996,205177,14600,0,09:56:33.395364
87930,78592,200986,205173,14610,0,09:56:33.445808
87955,78599,200992,205176,14620,0,09:56:33.484789
87948,78596,200991,205176,14630,0,09:56:33.504977
87934,78604,200989,205174,14640,0,09:56:33.544203
87936,78600,200992,205170,14650,0,09:56:33.595078
87958,78601,200916,205174,14660,0,09:56:33.615534
87930,78598,200993,205175,14670,0,09:56:33.703478
87957,78599,200991,205177,14680,0,09:56:33.705843
87915,78603,200967,205175,14690,0,09:56:33.744548
87944,78608,200956,205180,14700,0,09:56:33.805212
87933,78598,201012,205179,14710,0,09:56:33.854507
87934,78600,200993,205172,14720,0,09:56:33.865083
87939,78604,200987,205169,14730,0,09:56:33.894519
87928,78596,200993,205169,14740,0,09:56:33.965355
87933,78599,200993,205173,14750,0,09:56:33.984493
87941,78606,200987,205170,14760,0,09:56:34.014544
87936,78599,200990,205172,14770,0,09:56:34.074530
87949,78597,200995,205168,14780,0,09:56:34.101515
87933,78597,200987,205171,14790,0,09:56:34.144208
89005,79539,200995,205173,14800,0,09:56:34.174498
89858,80270,200992,205172,14810,0,09:56:34.214560
89545,80272,200988,205170,14820,0,09:56:34.254081
89634,80275,200985,205171,14830,0,09:56:34.294177
89618,80274,201008,205174,14840,0,09:56:34.335123
89624,80273,200924,205164,14850,0,09:56:34.374088
89623,80276,201058,205169,14860,0,09:56:34.414458
89621,80273,200968,205168,14870,0,09:56:34.455034
89630,80278,200987,205169,14880,0,09:56:34.495038
89627,80281,200985,205170,14890,0,09:56:34.534729
89624,80275,200987,205172,14900,0,09:56:34.574071
89628,80278,200988,205170,14910,0,09:56:34.615222
89625,80280,200992,205172,14920,0,09:56:34.654937
89628,80278,200988,205164,14930,0,09:56:34.695158
89616,80269,200987,205168,14940,0,09:56:34.734426
89627,80274,200989,205169,14950,0,09:56:34.774340
89590,80267,200990,205167,14960,0,09:56:34.814258
89632,80277,200985,205164,14970,0,09:56:34.854129
89616,80278,200987,205172,14980,0,09:56:34.894602
89626,80280,200948,205167,14990,0,09:56:34.941587
89624,80273,200986,205171,15000,0,09:56:34.975223
89628,80279,201007,205167,15010,0,09:56:35.014934
89620,80266,200991,205175,15020,0,09:56:35.055100
89623,80272,200993,205171,15030,0,09:56:35.093982
89621,80274,200992,205173,15040,0,09:56:35.134414
89622,80275,200987,205169,15050,0,09:56:35.174090
89620,80269,200983,205169,15060,0,09:56:35.215120
89622,80278,200985,205167,15070,0,09:56:35.255175
89626,80277,200989,205171,15080,0,09:56:35.294237
89628,80278,200986,205161,15090,0,09:56:35.335085
89627,80271,200992,205171,15100,0,09:56:35.375255
89626,80283,200988,205174,15110,0,09:56:35.415148
89638,80268,200971,205176,15120,0,09:56:35.454106
89601,80274,201013,205176,15130,0,09:56:35.495436
89623,80273,200956,205167,15140,0,09:56:35.534497
89625,80276,201006,205164,15150,0,09:56:35.574311
89620,80267,200969,205170,15160,0,09:56:35.615287
89628,80279,200990,205170,15170,0,09:56:35.655146
89618,80267,200987,205170,15180,0,09:56:35.695075
89631,80279,200987,205164,15190,0,09:56:35.734519
89618,80269,200986,205175,15200,0,09:56:35.775405
89620,80275,200983,205164,15210,0,09:56:35.814540
89621,80273,200982,205168,15220,0,09:56:35.855194
89623,80278,200982,205167,15230,0,09:56:35.904561
89649,80274,200987,205171,15240,0,09:56:35.935549
89585,80274,200984,205167,15250,0,09:56:35.974475
89657,80270,200986,205169,15260,0,09:56:36.014254
89584,80271,201010,205168,15270,0,09:56:36.054739
89620,80268,200951,205169,15280,0,09:56:36.095416
89623,80269,200975,205164,15290,0,09:56:36.134894
89620,80270,201004,205173,15300,0,09:56:36.184547
90344,80913,200987,205165,15310,0,09:56:36.215374
91556,81987,200990,205176,15320,0,09:56:36.254553
91566,81993,200996,205178,15330,0,09:56:36.295262
91562,81994,200987,205166,15340,0,09:56:36.334940
91562,81994,200989,205167,15350,0,09:56:36.375043
91555,81988,200990,205168,15360,0,09:56:36.414966
91556,81991,200985,205167,15370,0,09:56:36.460959
91558,81991,200984,205162,15380,0,09:56:36.495183
91542,81986,200988,205166,15390,0,09:56:36.535543
91559,81995,201008,205167,15400,0,09:56:36.574649
91601,81993,200988,205168,15410,0,09:56:36.615096
91555,81994,200993,205167,15420,0,09:56:36.654591
91557,81989,200964,205174,15430,0,09:56:36.695079
91565,81999,201007,205170,15440,0,09:56:36.734632
91558,81992,200983,205172,15450,0,09:56:36.775091
91558,81994,200984,205170,15460,0,09:56:36.814264
91560,81998,200984,205165,15470,0,09:56:36.854425
91551,81982,200979,205156,15480,0,09:56:36.894936
91571,81986,200985,205166,15490,0,09:56:36.941028
91555,81992,200981,205165,15500,0,09:56:36.974278
91556,81990,200982,205161,15510,0,09:56:37.015565
91551,81999,201007,205159,15520,0,09:56:37.054964
91559,81987,200979,205163,15530,0,09:56:37.094384
91581,81990,200988,205171,15540,0,09:56:37.135315
91565,81993,201004,205171,15550,0,09:56:37.174961
91532,81988,201000,205165,15560,0,09:56:37.214832
91558,81990,201002,205173,15570,0,09:56:37.255225
91558,81992,200945,205153,15580,0,09:56:37.294965
91564,81995,200995,205173,15590,0,09:56:37.334540
91554,81989,200985,205172,15600,0,09:56:37.394001
91552,81986,200983,205158,15610,0,09:56:37.414591
91562,81993,200985,205165,15620,0,09:56:37.461940
91552,81991,200983,205168,15630,0,09:56:37.494851
91560,81991,200983,205169,15640,0,09:56:37.534509
91560,81990,200984,205168,15650,0,09:56:37.575221
91563,81998,200985,205165,15660,0,09:56:37.614884
91568,81986,200985,205167,15670,0,09:56:37.654981
91538,81992,200980,205167,15680,0,09:56:37.694716
91537,81987,200985,205173,15690,0,09:56:37.735511
91601,81992,200984,205168,15700,0,09:56:37.774411
