PPG_IR1,PPG_IR2,PPG_G1,PPG_G2,PacketCounter,PacketLoss,Timestamp
10197,9555,251891,243014,150,10,11:28:19.662040
10199,9560,251889,243015,160,0,11:28:19.703053
10174,9555,251886,243006,170,0,11:28:19.742259
10197,9553,251923,243002,180,0,11:28:19.781302
10230,9557,251883,243002,190,0,11:28:19.821793
10139,9554,251881,243004,200,0,11:28:19.862142
10239,9557,251878,242998,210,0,11:28:19.902034
10191,9555,251916,242991,220,0,11:28:19.941226
10195,9553,251807,242989,230,0,11:28:19.982050
10198,9553,251880,242987,240,0,11:28:20.021196
10197,9553,251867,242993,250,0,11:28:20.062170
10200,9558,251864,242993,260,0,11:28:20.102220
10196,9553,251856,242990,270,0,11:28:20.142260
10195,9552,251860,242982,280,0,11:28:20.182089
10201,9554,251860,242985,290,0,11:28:20.222238
10173,9554,251850,242978,300,0,11:28:20.262194
10196,9556,251851,242981,310,0,11:28:20.302208
10179,9556,251862,242979,320,0,11:28:20.342271
10180,9548,251835,242977,330,0,11:28:20.382200
10202,9555,251844,242970,340,0,11:28:20.422233
10196,9555,251837,242974,350,0,11:28:20.461691
10195,9553,251836,242974,360,0,11:28:20.531388
10194,9552,251842,242974,370,0,11:28:20.559313
10190,9544,251828,242960,380,0,11:28:20.587238
10197,9555,251838,242970,390,0,11:28:20.622146
10196,9554,251831,242961,400,0,11:28:20.661183
10195,9553,251833,242956,410,0,11:28:20.701393
10202,9553,251829,242958,420,0,11:28:20.740950
10197,9556,251828,242954,430,0,11:28:20.782057
10213,9550,251834,242956,440,0,11:28:20.821851
10188,9553,251842,242955,450,0,11:28:20.861707
10192,9546,251822,242950,460,0,11:28:20.902183
10237,9557,251857,242955,470,0,11:28:20.942102
10177,9551,251823,242952,480,0,11:28:20.982403
10195,9552,251787,242953,490,0,11:28:21.022237
10196,9551,251818,242952,500,0,11:28:21.061983
11696,10959,251797,242946,510,0,11:28:21.102048
11912,11162,251816,242945,520,0,11:28:21.141388
11911,11163,251817,242946,530,0,11:28:21.182045
11911,11160,251814,242943,540,0,11:28:21.222212
11909,11155,251805,242937,550,0,11:28:21.261341
11910,11157,251810,242944,560,0,11:28:21.301381
11905,11158,251804,242936,570,0,11:28:21.341816
11924,11163,251809,242934,580,0,11:28:21.381832
11925,11159,251804,242934,590,0,11:28:21.421496
11884,11155,251805,242941,600,0,11:28:21.462196
11921,11158,251809,242934,610,0,11:28:21.501609
11888,11162,251840,242939,620,0,11:28:21.541575
11910,11160,251774,242933,630,0,11:28:21.581993
11907,11154,251812,242935,640,0,11:28:21.621853
11911,11156,251792,242939,650,0,11:28:21.662420
11909,11157,251807,242943,660,0,11:28:21.701191
11906,11153,251802,242933,670,0,11:28:21.742096
11907,11152,251807,242938,680,0,11:28:21.782405
11910,11160,251807,242937,690,0,11:28:21.821228
11906,11157,251799,242927,700,0,11:28:21.862041
11906,11155,251797,242935,710,0,11:28:21.902193
11911,11157,251799,242933,720,0,11:28:21.941428
11920,11156,251793,242926,730,0,11:28:21.981622
11870,11158,251789,242926,740,0,11:28:22.021300
11970,11159,251797,242925,750,0,11:28:22.061293
11889,11153,251807,242920,760,0,11:28:22.101157
11907,11153,251783,242924,770,0,11:28:22.141298
11910,11160,251858,242930,780,0,11:28:22.182377
11907,11155,251773,242929,790,0,11:28:22.222161
11907,11157,251795,242922,800,0,11:28:22.261919
11909,11155,251797,242928,810,0,11:28:22.302023
11905,11150,251792,242926,820,0,11:28:22.342260
11908,11155,251789,242916,830,0,11:28:22.381709
11879,11153,251789,242922,840,0,11:28:22.422399
11905,11157,251792,242922,850,0,11:28:22.462208
11909,11153,251793,242924,860,0,11:28:22.502188
11919,11156,251725,242919,870,0,11:28:22.542266
11910,11159,251786,242922,880,0,11:28:22.581849
11889,11148,251783,242919,890,0,11:28:22.622188
11886,11155,251795,242916,900,0,11:28:22.662247
11912,11160,251767,242917,910,0,11:28:22.701986
11906,11153,251789,242917,920,0,11:28:22.732245
11907,11155,251770,242911,930,0,11:28:22.782037
11908,11157,251786,242919,940,0,11:28:22.822380
11908,11157,251778,242910,950,0,11:28:22.851401
11910,11160,251790,242922,960,0,11:28:22.901944
11899,11157,251795,242911,970,0,11:28:22.942227
11889,11152,251785,242914,980,0,11:28:22.982564
11906,11151,251783,242910,990,0,11:28:23.021777
11894,11152,251776,242905,1000,0,11:28:23.062070
11910,11156,251761,242903,1010,0,11:28:23.101468
13164,12345,251768,242910,1020,0,11:28:23.141221
13786,12886,251769,242904,1030,0,11:28:23.182312
13737,12887,251777,242908,1040,0,11:28:23.212638
13752,12880,251779,242907,1050,0,11:28:23.251419
13752,12881,251832,242906,1060,0,11:28:23.291663
13755,12888,251745,242898,1070,0,11:28:23.332381
13753,12881,251762,242906,1080,0,11:28:23.371607
13754,12885,251764,242894,1090,0,11:28:23.411670
13751,12879,251765,242894,1100,0,11:28:23.452008
13751,12878,251766,242913,1110,0,11:28:23.491691
13751,12882,251765,242907,1120,0,11:28:23.531510
13752,12884,251761,242897,1130,0,11:28:23.572110
13750,12880,251767,242905,1140,0,11:28:23.611909
13748,12882,251764,242901,1150,0,11:28:23.652005
13719,12881,251761,242895,1160,0,11:28:23.691402
13782,12887,251760,242899,1170,0,11:28:23.732178
13741,12883,251775,242897,1180,0,11:28:23.771457
13752,12883,251748,242900,1190,0,11:28:23.811713
13753,12886,251768,242899,1200,0,11:28:23.852033
13753,12884,251748,242900,1210,0,11:28:23.892023
13751,12881,251760,242891,1220,0,11:28:23.932370
13751,12883,251761,242899,1230,0,11:28:23.972351
13752,12879,251760,242899,1240,0,11:28:24.011691
13748,12877,251755,242893,1250,0,11:28:24.052312
13753,12885,251760,242899,1260,0,11:28:24.091663
13752,12881,251754,242887,1270,0,11:28:24.132367
13754,12882,251752,242889,1280,0,11:28:24.172612
13742,12881,251756,242895,1290,0,11:28:24.211584
13756,12882,251746,242883,1300,0,11:28:24.251929
13766,12877,251751,242888,1310,0,11:28:24.291682
13748,12880,251728,242884,1320,0,11:28:24.331894
13751,12880,251755,242893,1330,0,11:28:24.372246
13752,12880,251786,242885,1340,0,11:28:24.411691
13752,12881,251748,242881,1350,0,11:28:24.451758
13750,12881,251748,242888,1360,0,11:28:24.491686
13751,12881,251745,242882,1370,0,11:28:24.532115
13754,12881,251747,242891,1380,0,11:28:24.571979
13751,12884,251745,242882,1390,0,11:28:24.611460
13751,12883,251745,242878,1400,0,11:28:24.651996
13750,12875,251747,242882,1410,0,11:28:24.691686
13770,12882,251748,242880,1420,0,11:28:24.732294
13692,12875,251745,242890,1430,0,11:28:24.771808
13737,12880,251745,242879,1440,0,11:28:24.811685
13788,12881,251753,242879,1450,0,11:28:24.851954
13747,12882,251719,242888,1460,0,11:28:24.891684
13753,12885,251729,242888,1470,0,11:28:24.932352
13753,12885,251751,242886,1480,0,11:28:24.972284
13751,12882,251735,242881,1490,0,11:28:25.011635
13750,12881,251739,242880,1500,0,11:28:25.052017
13748,12877,251734,242872,1510,0,11:28:25.091636
13753,12885,251742,242884,1520,0,11:28:25.132555
14588,13667,251739,242884,1530,0,11:28:25.172059
15662,14673,251739,242876,1540,0,11:28:25.211641
15660,14668,251741,242882,1550,0,11:28:25.252078
15704,14674,251735,242873,1560,0,11:28:25.291683
15657,14670,251730,242866,1570,0,11:28:25.332340
15616,14673,251734,242878,1580,0,11:28:25.372294
15623,14668,251761,242877,1590,0,11:28:25.411656
15661,14668,251720,242879,1600,0,11:28:25.452061
15657,14668,251743,242885,1610,0,11:28:25.491519
15659,14667,251741,242880,1620,0,11:28:25.532251
15659,14667,251734,242861,1630,0,11:28:25.571620
15660,14667,251728,242862,1640,0,11:28:25.612382
15659,14666,251730,242864,1650,0,11:28:25.651927
15660,14667,251733,242864,1660,0,11:28:25.691640
15662,14668,251729,242860,1670,0,11:28:25.732070
15659,14666,251731,242867,1680,0,11:28:25.771651
15656,14663,251732,242864,1690,0,11:28:25.811636
15665,14669,251734,242863,1700,0,11:28:25.851995
15708,14671,251731,242870,1710,0,11:28:25.891596
15691,14666,251724,242857,1720,0,11:28:25.932208
15634,14663,251734,242859,1730,0,11:28:25.971403
15654,14658,251754,242868,1740,0,11:28:26.012146
15659,14667,251719,242862,1750,0,11:28:26.052131
15658,14663,251710,242860,1760,0,11:28:26.092241
15660,14666,251731,242865,1770,0,11:28:26.131537
15659,14664,251726,242855,1780,0,11:28:26.171555
15659,14665,251732,242864,1790,0,11:28:26.211604
15658,14666,251730,242866,1800,0,11:28:26.251394
15658,14664,251723,242858,1810,0,11:28:26.291662
15657,14664,251729,242865,1820,0,11:28:26.332327
15680,14668,251731,242866,1830,0,11:28:26.371682
15607,14665,251722,242858,1840,0,11:28:26.411612
15647,14663,251723,242855,1850,0,11:28:26.451922
15685,14670,251744,242865,1860,0,11:28:26.491688
15654,14665,251695,242855,1870,0,11:28:26.532356
15657,14663,251699,242852,1880,0,11:28:26.571687
15662,14669,251738,242841,1890,0,11:28:26.611683
15659,14665,251715,242851,1900,0,11:28:26.651976
15660,14665,251716,242854,1910,0,11:28:26.692292
15658,14665,251717,242847,1920,0,11:28:26.731419
15658,14665,251714,242847,1930,0,11:28:26.771600
15659,14663,251714,242848,1940,0,11:28:26.811687
15659,14664,251713,242850,1950,0,11:28:26.851815
15658,14664,251715,242849,1960,0,11:28:26.891619
15686,14667,251719,242854,1970,0,11:28:26.931798
15702,14665,251716,242853,1980,0,11:28:26.971381
15598,14662,251713,242850,1990,0,11:28:27.011503
15633,14663,251725,242841,2000,0,11:28:27.052089
15659,14664,251716,242847,2010,0,11:28:27.091620
15659,14667,251699,242853,2020,0,11:28:27.132121
15655,14661,251720,242851,2030,0,11:28:27.172383
16117,15093,251712,242849,2040,0,11:28:27.211633
17511,16398,251711,242847,2050,0,11:28:27.251957
17511,16400,251713,242846,2060,0,11:28:27.291520
17508,16399,251710,242841,2070,0,11:28:27.332278
17510,16399,251711,242839,2080,0,11:28:27.371649
17514,16401,251711,242835,2090,0,11:28:27.412436
17511,16400,251710,242841,2100,0,11:28:27.451973
17515,16401,251713,242845,2110,0,11:28:27.491481
17514,16397,251710,242850,2120,0,11:28:27.532095
17536,16401,251711,242845,2130,0,11:28:27.571428
17483,16400,251708,242844,2140,0,11:28:27.612770
17511,16401,251688,242847,2150,0,11:28:27.651935
17512,16404,251760,242838,2160,0,11:28:27.691483
17515,16408,251670,242842,2170,0,11:28:27.732272
17511,16402,251701,242838,2180,0,11:28:27.771631
17511,16400,251707,242840,2190,0,11:28:27.812042
17513,16406,251704,242839,2200,0,11:28:27.851962
17511,16400,251707,242843,2210,0,11:28:27.891683
17511,16398,251698,242839,2220,0,11:28:27.932034
17508,16399,251696,242834,2230,0,11:28:27.971676
17506,16394,251701,242837,2240,0,11:28:28.011683
17489,16394,251701,242838,2250,0,11:28:28.052222
17467,16399,251700,242839,2260,0,11:28:28.091685
17568,16401,251697,242841,2270,0,11:28:28.132479
17508,16399,251688,242828,2280,0,11:28:28.172054
17511,16401,251626,242826,2290,0,11:28:28.211397
17510,16398,251712,242833,2300,0,11:28:28.252058
17509,16397,251683,242825,2310,0,11:28:28.291335
17508,16397,251691,242831,2320,0,11:28:28.332303
17509,16397,251694,242833,2330,0,11:28:28.371892
17508,16397,251698,242832,2340,0,11:28:28.411630
17512,16402,251692,242830,2350,0,11:28:28.451734
17509,16397,251693,242837,2360,0,11:28:28.491668
17509,16399,251687,242829,2370,0,11:28:28.531716
17519,16397,251693,242822,2380,0,11:28:28.571686
17523,16399,251686,242821,2390,0,11:28:28.611783
17491,16397,251698,242830,2400,0,11:28:28.652967
17483,16399,251691,242815,2410,0,11:28:28.692224
17511,16397,251699,242823,2420,0,11:28:28.731959
17512,16399,251707,242821,2430,0,11:28:28.771655
17512,16401,251657,242828,2440,0,11:28:28.811632
17510,16399,251692,242830,2450,0,11:28:28.852504
17513,16403,251697,242840,2460,0,11:28:28.891586
17511,16401,251696,242839,2470,0,11:28:28.932026
17508,16400,251694,242834,2480,0,11:28:28.971617
17510,16400,251686,242820,2490,0,11:28:29.012398
17512,16403,251689,242836,2500,0,11:28:29.051381
17512,16400,251691,242826,2510,0,11:28:29.091526
17543,16405,251690,242831,2520,0,11:28:29.132078
17451,16397,251682,242825,2530,0,11:28:29.172591
17556,16400,251687,242825,2540,0,11:28:29.211437
17615,16513,251703,242827,2550,0,11:28:29.251430
19433,18203,251655,242830,2560,0,11:28:29.291569
19432,18201,251754,242834,2570,0,11:28:29.331879
19432,18202,251672,242820,2580,0,11:28:29.371323
19432,18200,251684,242819,2590,0,11:28:29.411681
19431,18201,251688,242827,2600,0,11:28:29.451612
19434,18202,251684,242825,2610,0,11:28:29.492303
19433,18201,251681,242821,2620,0,11:28:29.532037
19431,18200,251683,242822,2630,0,11:28:29.571535
19430,18202,251679,242820,2640,0,11:28:29.611622
19430,18200,251687,242822,2650,0,11:28:29.652220
19457,18203,251682,242820,2660,0,11:28:29.691418
19390,18203,251678,242812,2670,0,11:28:29.732285
19483,18205,251678,242819,2680,0,11:28:29.771684
19418,18199,251686,242815,2690,0,11:28:29.811615
19433,18201,251614,242815,2700,0,11:28:29.851439
19432,18200,251712,242810,2710,0,11:28:29.891594
19431,18199,251643,242812,2720,0,11:28:29.932274
19430,18198,251675,242814,2730,0,11:28:29.971667
19432,18203,251675,242818,2740,0,11:28:30.012332
19429,18197,251675,242819,2750,0,11:28:30.051297
19432,18201,251672,242809,2760,0,11:28:30.091569
19428,18197,251684,242816,2770,0,11:28:30.132281
19429,18197,251673,242809,2780,0,11:28:30.171646
19433,18202,251675,242812,2790,0,11:28:30.212302
19461,18198,251673,242810,2800,0,11:28:30.252150
19382,18196,251673,242815,2810,0,11:28:30.292300
19434,18198,251682,242817,2820,0,11:28:30.332277
19429,18201,251702,242818,2830,0,11:28:30.371684
19429,18199,251654,242814,2840,0,11:28:30.412273
19431,18199,251689,242813,2850,0,11:28:30.451308
19430,18195,251675,242815,2860,0,11:28:30.492202
19434,18204,251677,242812,2870,0,11:28:30.532099
19433,18203,251675,242812,2880,0,11:28:30.571505
19427,18194,251670,242804,2890,0,11:28:30.611297
19435,18204,251681,242810,2900,0,11:28:30.651544
19429,18195,251681,242813,2910,0,11:28:30.692052
19437,18206,251682,242814,2920,0,11:28:30.732288
19419,18196,251679,242815,2930,0,11:28:30.771607
19503,18199,251679,242810,2940,0,11:28:30.811527
19412,18197,251675,242810,2950,0,11:28:30.852430
19433,18201,251636,242802,2960,0,11:28:30.892390
19428,18198,251755,242803,2970,0,11:28:30.932562
19432,18204,251651,242806,2980,0,11:28:30.971700
19427,18196,251666,242805,2990,0,11:28:31.011405
19430,18197,251665,242804,3000,0,11:28:31.051338
19430,18198,251670,242806,3010,0,11:28:31.091906
19429,18196,251671,242807,3020,0,11:28:31.131622
19430,18197,251668,242809,3030,0,11:28:31.171620
19431,18203,251669,242809,3040,0,11:28:31.211359
19431,18197,251669,242802,3050,0,11:28:31.251839
21049,19700,251672,242805,3060,0,11:28:31.292244
21226,19917,251674,242800,3070,0,11:28:31.332139
21292,19913,251669,242801,3080,0,11:28:31.371688
21234,19917,251688,242800,3090,0,11:28:31.411939
21259,19914,251660,242804,3100,0,11:28:31.451627
21257,19913,251679,242806,3110,0,11:28:31.491386
21259,19914,251640,242800,3120,0,11:28:31.532058
21265,19921,251666,242806,3130,0,11:28:31.571452
21258,19915,251672,242805,3140,0,11:28:31.611787
21263,19920,251665,242804,3150,0,11:28:31.651741
21261,19913,251664,242803,3160,0,11:28:31.691244
21259,19912,251667,242801,3170,0,11:28:31.732021
21260,19915,251669,242804,3180,0,11:28:31.772154
21260,19915,251666,242797,3190,0,11:28:31.812047
21247,19913,251661,242799,3200,0,11:28:31.851913
21260,19913,251666,242805,3210,0,11:28:31.892151
21262,19912,251645,242797,3220,0,11:28:31.931999
21254,19913,251661,242809,3230,0,11:28:31.972355
21258,19913,251664,242796,3240,0,11:28:32.011607
21260,19916,251675,242796,3250,0,11:28:32.052341
21259,19917,251657,242799,3260,0,11:28:32.092241
21261,19913,251658,242790,3270,0,11:28:32.132048
21259,19913,251668,242805,3280,0,11:28:32.172011
21259,19916,251663,242793,3290,0,11:28:32.212297
21259,19912,251660,242791,3300,0,11:28:32.252116
21259,19912,251661,242792,3310,0,11:28:32.292064
21260,19916,251658,242790,3320,0,11:28:32.331982
21282,19915,251661,242795,3330,0,11:28:32.372254
21235,19918,251659,242796,3340,0,11:28:32.412374
21243,19917,251655,242790,3350,0,11:28:32.452071
21225,19910,251670,242794,3360,0,11:28:32.492033
21258,19910,251602,242795,3370,0,11:28:32.532114
21261,19917,251684,242789,3380,0,11:28:32.572422
21258,19914,251639,242793,3390,0,11:28:32.612159
21259,19913,251654,242791,3400,0,11:28:32.652088
21258,19911,251660,242798,3410,0,11:28:32.692296
21258,19915,251656,242799,3420,0,11:28:32.732329
21261,19914,251662,242796,3430,0,11:28:32.771061
21258,19911,251649,242785,3440,0,11:28:32.812434
21261,19918,251661,242793,3450,0,11:28:32.852113
21262,19918,251652,242793,3460,0,11:28:32.892090
21277,19913,251656,242793,3470,0,11:28:32.931488
21259,19913,251659,242803,3480,0,11:28:32.972048
21303,19911,251654,242792,3490,0,11:28:33.011716
21240,19905,251662,242792,3500,0,11:28:33.051932
21262,19917,251655,242797,3510,0,11:28:33.092187
21259,19913,251677,242802,3520,0,11:28:33.132197
21261,19920,251638,242791,3530,0,11:28:33.171957
21260,19918,251658,242803,3540,0,11:28:33.211735
21256,19911,251650,242792,3550,0,11:28:33.251954
21257,19911,251652,242788,3560,0,11:28:33.292032
22480,21060,251659,242799,3570,0,11:28:33.331962
23214,21746,251653,242793,3580,0,11:28:33.371854
23209,21745,251657,242798,3590,0,11:28:33.412328
23211,21741,251650,242789,3600,0,11:28:33.452067
23197,21742,251652,242795,3610,0,11:28:33.492244
23206,21745,251651,242796,3620,0,11:28:33.531918
23251,21750,251656,242802,3630,0,11:28:33.572113
23202,21742,251647,242800,3640,0,11:28:33.612232
23212,21744,251640,242789,3650,0,11:28:33.652312
23212,21746,251662,242792,3660,0,11:28:33.691384
23214,21749,251646,242793,3670,0,11:28:33.732110
23213,21745,251653,242791,3680,0,11:28:33.771899
23208,21740,251655,242792,3690,0,11:28:33.812075
23211,21743,251658,242785,3700,0,11:28:33.852142
23211,21743,251657,242799,3710,0,11:28:33.891312
23213,21743,251652,242783,3720,0,11:28:33.932524
23214,21747,251656,242797,3730,0,11:28:33.972301
23232,21751,251656,242793,3740,0,11:28:34.012338
23201,21742,251658,242795,3750,0,11:28:34.051669
23177,21740,251660,242792,3760,0,11:28:34.092162
23208,21744,251667,242796,3770,0,11:28:34.132110
23214,21744,251634,242794,3780,0,11:28:34.171343
23211,21745,251634,242781,3790,0,11:28:34.212062
23209,21742,251658,242782,3800,0,11:28:34.251934
23211,21743,251655,242784,3810,0,11:28:34.292214
23210,21744,251658,242789,3820,0,11:28:34.332056
23208,21741,251655,242784,3830,0,11:28:34.372076
23212,21744,251650,242783,3840,0,11:28:34.411979
23209,21745,251648,242785,3850,0,11:28:34.452030
23210,21743,251647,242784,3860,0,11:28:34.491924
23207,21737,251646,242775,3870,0,11:28:34.532299
23190,21746,251643,242781,3880,0,11:28:34.571768
23229,21742,251650,242787,3890,0,11:28:34.611559
23234,21751,251650,242789,3900,0,11:28:34.651883
23192,21735,251602,242783,3910,0,11:28:34.692183
23208,21741,251681,242788,3920,0,11:28:34.732339
23209,21745,251687,242784,3930,0,11:28:34.772085
23209,21745,251640,242788,3940,0,11:28:34.812008
23208,21743,251649,242778,3950,0,11:28:34.851383
23211,21743,251650,242782,3960,0,11:28:34.892199
23209,21741,251646,242783,3970,0,11:28:34.932378
23209,21741,251653,242787,3980,0,11:28:34.971486
23213,21746,251648,242783,3990,0,11:28:35.011937
23205,21738,251643,242778,4000,0,11:28:35.052218
23218,21741,251647,242782,4010,0,11:28:35.091992
23170,21741,251648,242784,4020,0,11:28:35.132432
23218,21740,251651,242785,4030,0,11:28:35.172103
23219,21750,251653,242787,4040,0,11:28:35.212463
23210,21746,251631,242783,4050,0,11:28:35.251345
23208,21744,251594,242782,4060,0,11:28:35.291985
23208,21742,251651,242790,4070,0,11:28:35.331575
24049,22531,251644,242783,4080,0,11:28:35.371996
25124,23540,251640,242787,4090,0,11:28:35.412118
25122,23537,251644,242790,4100,0,11:28:35.452251
25119,23531,251633,242778,4110,0,11:28:35.492322
25120,23534,251637,242780,4120,0,11:28:35.532009
25124,23541,251639,242782,4130,0,11:28:35.572007
25123,23539,251640,242781,4140,0,11:28:35.612135
25140,23545,251642,242777,4150,0,11:28:35.651615
25131,23538,251641,242775,4160,0,11:28:35.691920
25098,23536,251638,242782,4170,0,11:28:35.731502
25103,23536,251646,242773,4180,0,11:28:35.772214
25124,23538,251641,242779,4190,0,11:28:35.811624
25120,23535,251628,242782,4200,0,11:28:35.852116
25118,23532,251617,242770,4210,0,11:28:35.891868
25119,23536,251641,242786,4220,0,11:28:35.932035
25119,23535,251638,242787,4230,0,11:28:35.972052
25122,23542,251640,242790,4240,0,11:28:36.012059
25135,23539,251635,242777,4250,0,11:28:36.052069
25114,23536,251636,242780,4260,0,11:28:36.091967
25119,23534,251630,242773,4270,0,11:28:36.131431
25111,23535,251654,242782,4280,0,11:28:36.171622
25122,23541,251631,242774,4290,0,11:28:36.211221
25114,23537,251631,242773,4300,0,11:28:36.251114
25153,23536,251612,242770,4310,0,11:28:36.291231
25100,23536,251640,242779,4320,0,11:28:36.332122
25119,23534,251656,242776,4330,0,11:28:36.371536
25123,23538,251711,242775,4340,0,11:28:36.412196
25123,23539,251617,242772,4350,0,11:28:36.451605
25122,23535,251632,242773,4360,0,11:28:36.492222
25119,23531,251633,242773,4370,0,11:28:36.532115
25122,23538,251634,242774,4380,0,11:28:36.571601
25121,23533,251642,242786,4390,0,11:28:36.611318
25119,23537,251632,242776,4400,0,11:28:36.651212
25123,23533,251632,242773,4410,0,11:28:36.691107
25132,23532,251627,242771,4420,0,11:28:36.731678
25150,23539,251631,242776,4430,0,11:28:36.771231
25097,23543,251630,242768,4440,0,11:28:36.811499
25153,23542,251648,242778,4450,0,11:28:36.851250
25120,23533,251646,242773,4460,0,11:28:36.891143
25122,23540,251618,242775,4470,0,11:28:36.932228
25119,23534,251622,242771,4480,0,11:28:36.971386
25121,23538,251632,242775,4490,0,11:28:37.011827
25120,23538,251626,242770,4500,0,11:28:37.051191
25124,23540,251630,242769,4510,0,11:28:37.092083
25128,23531,251633,242772,4520,0,11:28:37.131992
25111,23537,251631,242776,4530,0,11:28:37.171369
25117,23533,251627,242778,4540,0,11:28:37.212057
25106,23539,251642,242773,4550,0,11:28:37.251875
25118,23536,251609,242766,4560,0,11:28:37.291529
25140,23537,251634,242773,4570,0,11:28:37.331909
25123,23533,251619,242775,4580,0,11:28:37.372165
25589,23997,251629,242768,4590,0,11:28:37.412043
27109,25400,251654,242778,4600,0,11:28:37.451753
27109,25399,251649,242772,4610,0,11:28:37.492099
27110,25402,251596,242772,4620,0,11:28:37.531859
27111,25405,251625,242771,4630,0,11:28:37.571811
27108,25401,251629,242773,4640,0,11:28:37.611995
27111,25403,251630,242774,4650,0,11:28:37.651535
27107,25400,251627,242772,4660,0,11:28:37.691916
27115,25398,251623,242768,4670,0,11:28:37.732108
27109,25402,251626,242766,4680,0,11:28:37.771512
27151,25404,251620,242764,4690,0,11:28:37.811205
27106,25402,251623,242765,4700,0,11:28:37.852098
27009,25395,251624,242769,4710,0,11:28:37.891617
27155,25405,251638,242765,4720,0,11:28:37.932064
27067,25402,251631,242768,4730,0,11:28:37.972323
27109,25402,251576,242764,4740,0,11:28:38.012256
27108,25405,251702,242760,4750,0,11:28:38.051264
27107,25401,251596,242759,4760,0,11:28:38.092368
27102,25394,251619,242761,4770,0,11:28:38.132169
27108,25399,251624,242765,4780,0,11:28:38.172420
27108,25400,251625,242763,4790,0,11:28:38.212254
27112,25405,251623,242764,4800,0,11:28:38.252044
27106,25398,251623,242760,4810,0,11:28:38.291223
27110,25404,251620,242763,4820,0,11:28:38.332219
27106,25398,251617,242761,4830,0,11:28:38.372431
27144,25399,251619,242758,4840,0,11:28:38.412378
27062,25406,251619,242763,4850,0,11:28:38.452121
27177,25404,251623,242760,4860,0,11:28:38.491262
27107,25405,251641,242752,4870,0,11:28:38.532173
27109,25401,251580,242763,4880,0,11:28:38.572419
27105,25398,251644,242755,4890,0,11:28:38.612094
27109,25402,251612,242753,4900,0,11:28:38.652413
27108,25401,251621,242750,4910,0,11:28:38.692361
27105,25399,251611,242745,4920,0,11:28:38.731362
27110,25403,251618,242762,4930,0,11:28:38.772263
27147,25405,251621,242761,4940,0,11:28:38.812428
27102,25402,251616,242755,4950,0,11:28:38.851231
27105,25399,251617,242757,4960,0,11:28:38.892426
27092,25399,251644,242756,4970,0,11:28:38.932241
27128,25405,251624,242765,4980,0,11:28:38.972012
27120,25403,251616,242758,4990,0,11:28:39.012067
27082,25401,251607,242762,5000,0,11:28:39.051152
27107,25404,251635,242766,5010,0,11:28:39.091940
27108,25399,251641,242759,5020,0,11:28:39.132127
27107,25403,251567,242755,5030,0,11:28:39.171269
27110,25405,251617,242759,5040,0,11:28:39.212370
27108,25401,251619,242760,5050,0,11:28:39.251328
27107,25400,251615,242757,5060,0,11:28:39.292366
27107,25401,251619,242760,5070,0,11:28:39.332121
27111,25400,251625,242764,5080,0,11:28:39.372345
27111,25405,251617,242754,5090,0,11:28:39.411249
27138,25407,251625,242767,5100,0,11:28:39.452054
29084,27259,251627,242766,5110,0,11:28:39.491430
28994,27253,251622,242767,5120,0,11:28:39.531731
29130,27262,251633,242768,5130,0,11:28:39.571791
29058,27260,251626,242768,5140,0,11:28:39.612196
29084,27255,251578,242752,5150,0,11:28:39.652017
29084,27256,251665,242760,5160,0,11:28:39.691812
29085,27255,251607,242765,5170,0,11:28:39.732126
29086,27257,251617,242754,5180,0,11:28:39.772302
29081,27253,251612,242752,5190,0,11:28:39.812413
29086,27255,251615,242755,5200,0,11:28:39.852175
29085,27253,251613,242752,5210,0,11:28:39.892429
29070,27250,251615,242760,5220,0,11:28:39.931292
29071,27257,251616,242761,5230,0,11:28:39.972102
29084,27255,251618,242760,5240,0,11:28:40.011558
29091,27255,251612,242745,5250,0,11:28:40.051978
29072,27254,251614,242754,5260,0,11:28:40.091980
29140,27256,251617,242756,5270,0,11:28:40.132075
29077,27258,251625,242763,5280,0,11:28:40.171949
29083,27257,251597,242754,5290,0,11:28:40.212362
29082,27256,251633,242757,5300,0,11:28:40.252393
29082,27252,251608,242757,5310,0,11:28:40.281885
29085,27254,251617,242764,5320,0,11:28:40.332086
29082,27256,251609,242750,5330,0,11:28:40.371972
29113,27250,251609,242750,5340,0,11:28:40.412190
29077,27252,251611,242758,5350,0,11:28:40.451331
29080,27255,251611,242757,5360,0,11:28:40.491365
29072,27252,251629,242757,5370,0,11:28:40.531913
29110,27256,251599,242750,5380,0,11:28:40.572527
29112,27253,251615,242753,5390,0,11:28:40.601570
29066,27255,251613,242756,5400,0,11:28:40.641651
29087,27258,251642,242757,5410,0,11:28:40.682132
29085,27255,251614,242751,5420,0,11:28:40.721446
29084,27257,251586,242751,5430,0,11:28:40.761667
29081,27252,251609,242751,5440,0,11:28:40.802465
29086,27257,251617,242752,5450,0,11:28:40.841718
29086,27255,251612,242745,5460,0,11:28:40.882515
29083,27255,251615,242756,5470,0,11:28:40.921244
29082,27256,251615,242753,5480,0,11:28:40.961629
29085,27259,251607,242751,5490,0,11:28:41.001882
29080,27253,251614,242758,5500,0,11:28:41.041882
29098,27256,251615,242759,5510,0,11:28:41.082284
29040,27253,251613,242761,5520,0,11:28:41.122527
29119,27258,251606,242753,5530,0,11:28:41.161610
29056,27248,251639,242756,5540,0,11:28:41.201995
29079,27255,251584,242755,5550,0,11:28:41.241638
29079,27257,251651,242755,5560,0,11:28:41.281652
29083,27261,251595,242755,5570,0,11:28:41.322068
29082,27260,251602,242757,5580,0,11:28:41.361398
29080,27253,251600,242755,5590,0,11:28:41.402168
29080,27261,251601,242755,5600,0,11:28:41.452359
30614,28696,251607,242759,5610,0,11:28:41.481886
30969,29034,251597,242748,5620,0,11:28:41.522727
30969,29033,251605,242755,5630,0,11:28:41.561696
30968,29029,251604,242754,5640,0,11:28:41.601681
30996,29034,251608,242760,5650,0,11:28:41.641652
30928,29034,251607,242762,5660,0,11:28:41.682133
31005,29036,251605,242758,5670,0,11:28:41.721460
30956,29031,251633,242755,5680,0,11:28:41.761944
30969,29034,251574,242755,5690,0,11:28:41.802362
30968,29030,251616,242756,5700,0,11:28:41.841382
30969,29030,251592,242756,5710,0,11:28:41.882300
30971,29033,251598,242755,5720,0,11:28:41.922286
30966,29025,251596,242746,5730,0,11:28:41.962279
30968,29028,251596,242743,5740,0,11:28:42.002172
30971,29034,251599,242752,5750,0,11:28:42.042237
30966,29029,251602,242759,5760,0,11:28:42.082203
30968,29027,251604,242752,5770,0,11:28:42.121597
30968,29029,251604,242755,5780,0,11:28:42.162313
30936,29024,251603,242755,5790,0,11:28:42.202073
30967,29030,251600,242752,5800,0,11:28:42.241598
30988,29034,251601,242755,5810,0,11:28:42.282076
30965,29030,251583,242745,5820,0,11:28:42.322335
30970,29031,251592,242749,5830,0,11:28:42.361331
30967,29028,251589,242751,5840,0,11:28:42.401507
30969,29030,251586,242753,5850,0,11:28:42.441685
30968,29031,251590,242754,5860,0,11:28:42.482413
30967,29029,251585,242751,5870,0,11:28:42.521582
30966,29032,251581,242743,5880,0,11:28:42.562472
30969,29030,251580,242747,5890,0,11:28:42.602366
30970,29032,251586,242753,5900,0,11:28:42.642260
30966,29031,251587,242753,5910,0,11:28:42.682152
30975,29031,251587,242752,5920,0,11:28:42.721660
30934,29025,251581,242745,5930,0,11:28:42.762001
30939,29027,251588,242753,5940,0,11:28:42.802380
30924,29027,251601,242746,5950,0,11:28:42.842505
30965,29029,251520,242740,5960,0,11:28:42.882028
30966,29029,251585,242753,5970,0,11:28:42.921635
30961,29023,251554,242745,5980,0,11:28:42.961542
30966,29028,251575,242739,5990,0,11:28:43.002506
30966,29028,251579,242744,6000,0,11:28:43.042130
30969,29033,251579,242745,6010,0,11:28:43.082024
30965,29026,251580,242753,6020,0,11:28:43.121818
30969,29030,251578,242742,6030,0,11:28:43.161493
30962,29024,251580,242748,6040,0,11:28:43.202481
30965,29025,251583,242751,6050,0,11:28:43.242508
30980,29033,251585,242748,6060,0,11:28:43.281399
30952,29031,251577,242746,6070,0,11:28:43.321451
30979,29032,251575,242744,6080,0,11:28:43.362077
30955,29026,251593,242742,6090,0,11:28:43.401513
30965,29022,251580,242744,6100,0,11:28:43.441266
30965,29027,251576,242743,6110,0,11:28:43.482036
32185,30174,251573,242748,6120,0,11:28:43.521360
32914,30857,251578,242744,6130,0,11:28:43.561367
32912,30857,251576,242746,6140,0,11:28:43.611781
32913,30852,251573,242745,6150,0,11:28:43.642086
32915,30858,251576,242744,6160,0,11:28:43.682219
32917,30861,251580,242749,6170,0,11:28:43.721769
32917,30858,251581,242747,6180,0,11:28:43.761629
32937,30856,251577,242742,6190,0,11:28:43.802372
32892,30854,251584,242749,6200,0,11:28:43.842553
32954,30861,251586,242747,6210,0,11:28:43.882021
32921,30858,251580,242751,6220,0,11:28:43.921976
32918,30863,251529,242745,6230,0,11:28:43.961651
32911,30856,251593,242741,6240,0,11:28:44.002448
32916,30859,251584,242742,6250,0,11:28:44.041669
32914,30859,251578,242739,6260,0,11:28:44.082406
32917,30858,251578,242742,6270,0,11:28:44.121212
32915,30860,251581,242752,6280,0,11:28:44.161361
32910,30853,251578,242739,6290,0,11:28:44.202347
32916,30863,251581,242739,6300,0,11:28:44.241984
32915,30861,251575,242743,6310,0,11:28:44.282042
32916,30856,251583,242747,6320,0,11:28:44.321185
32928,30859,251583,242746,6330,0,11:28:44.361668
32935,30866,251583,242749,6340,0,11:28:44.401358
32933,30854,251575,242744,6350,0,11:28:44.441704
32897,30855,251603,242744,6360,0,11:28:44.481828
32920,30864,251588,242740,6370,0,11:28:44.521640
32914,30857,251558,242749,6380,0,11:28:44.561715
32912,30858,251551,242741,6390,0,11:28:44.601705
32911,30855,251576,242742,6400,0,11:28:44.641487
32914,30855,251586,242747,6410,0,11:28:44.681542
32914,30855,251581,242744,6420,0,11:28:44.721586
32911,30851,251579,242747,6430,0,11:28:44.762103
32915,30858,251577,242746,6440,0,11:28:44.801684
32915,30854,251579,242738,6450,0,11:28:44.841661
32915,30858,251583,242749,6460,0,11:28:44.882380
32917,30856,251562,242741,6470,0,11:28:44.921711
32937,30862,251583,242747,6480,0,11:28:44.961585
32930,30855,251581,242752,6490,0,11:28:45.001638
32894,30855,251572,242751,6500,0,11:28:45.041659
32911,30856,251618,242750,6510,0,11:28:45.082008
32916,30857,251643,242750,6520,0,11:28:45.121661
32919,30864,251567,242750,6530,0,11:28:45.161341
32911,30853,251569,242734,6540,0,11:28:45.202515
32913,30853,251574,242745,6550,0,11:28:45.251625
32917,30860,251574,242743,6560,0,11:28:45.281578
32914,30859,251574,242747,6570,0,11:28:45.321646
32909,30847,251568,242737,6580,0,11:28:45.361645
32912,30855,251577,242750,6590,0,11:28:45.401980
32925,30854,251568,242737,6600,0,11:28:45.441621
32872,30852,251573,242740,6610,0,11:28:45.482036
32867,30857,251568,242744,6620,0,11:28:45.522267
33815,31677,251580,242747,6630,0,11:28:45.561488
34922,32740,251548,242746,6640,0,11:28:45.601672
34922,32739,251578,242741,6650,0,11:28:45.641595
34919,32736,251587,242735,6660,0,11:28:45.682016
34919,32739,251564,242730,6670,0,11:28:45.721679
34923,32739,251568,242737,6680,0,11:28:45.761598
34922,32738,251567,242733,6690,0,11:28:45.801410
34916,32733,251572,242740,6700,0,11:28:45.841715
34918,32737,251574,242737,6710,0,11:28:45.882089
34918,32740,251571,242739,6720,0,11:28:45.921661
34924,32745,251570,242739,6730,0,11:28:45.961709
34925,32742,251571,242732,6740,0,11:28:46.002311
34939,32743,251578,242738,6750,0,11:28:46.041641
34932,32740,251578,242737,6760,0,11:28:46.082033
34901,32739,251591,242745,6770,0,11:28:46.121998
34921,32738,251584,242735,6780,0,11:28:46.162208
34919,32742,251562,242738,6790,0,11:28:46.201601
34922,32741,251558,242741,6800,0,11:28:46.241624
34925,32743,251579,242741,6810,0,11:28:46.282009
34918,32736,251572,242736,6820,0,11:28:46.321410
34916,32737,251576,242745,6830,0,11:28:46.362208
34918,32738,251570,242736,6840,0,11:28:46.402027
34922,32741,251573,242741,6850,0,11:28:46.442226
34920,32740,251578,242739,6860,0,11:28:46.482004
34922,32737,251570,242736,6870,0,11:28:46.521474
34919,32733,251574,242742,6880,0,11:28:46.561468
34912,32736,251576,242737,6890,0,11:28:46.601590
34937,32747,251572,242735,6900,0,11:28:46.641872
34892,32741,251573,242737,6910,0,11:28:46.682125
34919,32737,251571,242734,6920,0,11:28:46.721601
34920,32736,251638,242741,6930,0,11:28:46.761829
34921,32742,251545,242732,6940,0,11:28:46.802381
34920,32737,251577,242739,6950,0,11:28:46.842438
34920,32742,251576,242741,6960,0,11:28:46.882161
34922,32742,251576,242735,6970,0,11:28:46.922344
34921,32742,251573,242732,6980,0,11:28:46.961613
34918,32737,251578,242740,6990,0,11:28:47.001349
34919,32735,251579,242739,7000,0,11:28:47.041407
34920,32739,251582,242741,7010,0,11:28:47.081935
34925,32744,251578,242740,7020,0,11:28:47.121564
34900,32739,251575,242739,7030,0,11:28:47.161487
34967,32738,251574,242739,7040,0,11:28:47.202468
34893,32736,251581,242738,7050,0,11:28:47.243052
34920,32740,251574,242747,7060,0,11:28:47.282006
34923,32745,251620,242744,7070,0,11:28:47.322261
34920,32737,251540,242736,7080,0,11:28:47.361709
34919,32736,251576,242736,7090,0,11:28:47.402298
34919,32739,251577,242737,7100,0,11:28:47.441661
34921,32737,251576,242739,7110,0,11:28:47.481864
34917,32736,251572,242742,7120,0,11:28:47.522539
34920,32739,251568,242738,7130,0,11:28:47.561711
35247,33043,251573,242738,7140,0,11:28:47.601600
36671,34382,251571,242737,7150,0,11:28:47.641489
36673,34388,251572,242735,7160,0,11:28:47.681860
36652,34384,251569,242733,7170,0,11:28:47.722493
36695,34375,251566,242730,7180,0,11:28:47.761686
36655,34378,251570,242730,7190,0,11:28:47.802345
36675,34386,251549,242739,7200,0,11:28:47.842053
36670,34379,251650,242733,7210,0,11:28:47.881950
36667,34379,251552,242729,7220,0,11:28:47.922635
36669,34380,251565,242731,7230,0,11:28:47.961710
36671,34380,251561,242729,7240,0,11:28:48.002145
36674,34388,251561,242731,7250,0,11:28:48.041657
36673,34386,251565,242730,7260,0,11:28:48.082100
36667,34381,251561,242721,7270,0,11:28:48.122636
36671,34381,251554,242728,7280,0,11:28:48.161712
36683,34382,251554,242725,7290,0,11:28:48.202639
36657,34383,251556,242723,7300,0,11:28:48.242337
36629,34378,251552,242713,7310,0,11:28:48.283740
36727,34387,251558,242727,7320,0,11:28:48.321708
36672,34388,251545,242725,7330,0,11:28:48.361503
36670,34381,251477,242723,7340,0,11:28:48.401960
36671,34381,251606,242733,7350,0,11:28:48.441329
36672,34385,251550,242728,7360,0,11:28:48.481327
36672,34382,251563,242733,7370,0,11:28:48.522137
36669,34379,251563,242724,7380,0,11:28:48.562252
36671,34382,251566,242732,7390,0,11:28:48.602232
36671,34379,251566,242731,7400,0,11:28:48.641719
36677,34387,251569,242733,7410,0,11:28:48.682392
36675,34385,251563,242730,7420,0,11:28:48.722317
36675,34380,251566,242727,7430,0,11:28:48.761427
36719,34387,251562,242723,7440,0,11:28:48.801708
36624,34383,251570,242730,7450,0,11:28:48.841293
36693,34388,251567,242731,7460,0,11:28:48.882484
36655,34382,251605,242733,7470,0,11:28:48.921554
36678,34388,251484,242728,7480,0,11:28:48.962480
36673,34388,251637,242732,7490,0,11:28:49.001558
36669,34378,251547,242724,7500,0,11:28:49.041801
36671,34382,251561,242727,7510,0,11:28:49.081933
36673,34383,251568,242729,7520,0,11:28:49.121418
36673,34381,251561,242723,7530,0,11:28:49.162520
36671,34381,251562,242727,7540,0,11:28:49.202136
36669,34380,251560,242722,7550,0,11:28:49.241757
36668,34376,251555,242718,7560,0,11:28:49.282336
36674,34384,251560,242724,7570,0,11:28:49.321628
36700,34385,251560,242729,7580,0,11:28:49.361894
36650,34386,251563,242727,7590,0,11:28:49.401628
36700,34385,251559,242721,7600,0,11:28:49.442081
36665,34380,251581,242721,7610,0,11:28:49.481982
36670,34382,251512,242727,7620,0,11:28:49.521741
36669,34384,251569,242718,7630,0,11:28:49.562234
36671,34383,251553,242713,7640,0,11:28:49.601734
36671,34383,251563,242723,7650,0,11:28:49.641568
38697,36283,251562,242721,7660,0,11:28:49.681977
38697,36285,251562,242724,7670,0,11:28:49.721637
38695,36285,251565,242718,7680,0,11:28:49.761707
38696,36281,251565,242722,7690,0,11:28:49.801588
38696,36282,251562,242717,7700,0,11:28:49.842017
38696,36283,251559,242717,7710,0,11:28:49.881930
38687,36279,251557,242712,7720,0,11:28:49.922292
38737,36283,251553,242712,7730,0,11:28:49.962137
38664,36279,251567,242723,7740,0,11:28:50.001600
38690,36273,251554,242715,7750,0,11:28:50.042283
38699,36287,251547,242721,7760,0,11:28:50.081972
38692,36283,251552,242715,7770,0,11:28:50.121701
38695,36281,251556,242712,7780,0,11:28:50.161656
38691,36277,251559,242723,7790,0,11:28:50.202212
38697,36284,251561,242715,7800,0,11:28:50.242529
38693,36276,251559,242725,7810,0,11:28:50.282325
38693,36279,251560,242721,7820,0,11:28:50.321283
38700,36288,251563,242723,7830,0,11:28:50.361703
38706,36282,251563,242728,7840,0,11:28:50.402499
38656,36285,251558,242717,7850,0,11:28:50.441471
38758,36284,251558,242721,7860,0,11:28:50.481707
38667,36280,251561,242725,7870,0,11:28:50.531614
38692,36284,251526,242719,7880,0,11:28:50.561656
38692,36280,251649,242720,7890,0,11:28:50.601617
38695,36283,251532,242722,7900,0,11:28:50.642617
38693,36281,251557,242719,7910,0,11:28:50.681982
38693,36283,251558,242725,7920,0,11:28:50.721461
38694,36282,251555,242717,7930,0,11:28:50.761707
38692,36279,251555,242715,7940,0,11:28:50.802444
38693,36279,251558,242723,7950,0,11:28:50.842516
38695,36281,251554,242718,7960,0,11:28:50.882327
38743,36285,251552,242719,7970,0,11:28:50.922170
38703,36280,251558,242721,7980,0,11:28:50.961898
38660,36273,251555,242724,7990,0,11:28:51.011552
38690,36282,251562,242720,8000,0,11:28:51.042019
38670,36281,251582,242721,8010,0,11:28:51.082092
38692,36277,251529,242721,8020,0,11:28:51.121728
38691,36279,251552,242716,8030,0,11:28:51.161704
38691,36281,251561,242717,8040,0,11:28:51.202439
38688,36277,251554,242722,8050,0,11:28:51.242851
38686,36274,251552,242716,8060,0,11:28:51.281702
38693,36283,251546,242712,8070,0,11:28:51.321645
38694,36285,251550,242722,8080,0,11:28:51.361606
38693,36282,251555,242734,8090,0,11:28:51.402099
38692,36276,251557,242725,8100,0,11:28:51.441601
38695,36281,251559,242728,8110,0,11:28:51.481795
38735,36282,251556,242724,8120,0,11:28:51.522276
38656,36275,251556,242722,8130,0,11:28:51.561682
38708,36285,251556,242727,8140,0,11:28:51.601409
38678,36273,251582,242725,8150,0,11:28:51.642541
40295,37782,251523,242716,8160,0,11:28:51.681860
40673,38141,251587,242713,8170,0,11:28:51.721655
40670,38134,251537,242720,8180,0,11:28:51.761705
40670,38135,251559,242728,8190,0,11:28:51.801417
40670,38133,251552,242720,8200,0,11:28:51.841489
40668,38135,251551,242716,8210,0,11:28:51.881946
40668,38132,251553,242731,8220,0,11:28:51.922079
40669,38135,251551,242724,8230,0,11:28:51.961706
40670,38138,251548,242716,8240,0,11:28:52.002458
40670,38139,251547,242721,8250,0,11:28:52.042527
40676,38132,251547,242715,8260,0,11:28:52.081923
40634,38132,251548,242721,8270,0,11:28:52.121621
40669,38134,251546,242716,8280,0,11:28:52.161583
40616,38132,251562,242710,8290,0,11:28:52.201818
40633,38139,251517,242715,8300,0,11:28:52.241067
40634,38139,251571,242710,8310,0,11:28:52.281895
40632,38138,251520,242716,8320,0,11:28:52.322083
40632,38134,251544,242712,8330,0,11:28:52.361487
40633,38137,251547,242720,8340,0,11:28:52.401954
40630,38134,251547,242713,8350,0,11:28:52.441666
40630,38137,251550,242718,8360,0,11:28:52.481932
40626,38131,251542,242708,8370,0,11:28:52.521588
40629,38136,251550,242719,8380,0,11:28:52.561705
40631,38138,251547,242708,8390,0,11:28:52.601515
40619,38134,251548,242715,8400,0,11:28:52.641631
40639,38139,251546,242716,8410,0,11:28:52.681893
40638,38135,251550,242712,8420,0,11:28:52.721241
40624,38129,251547,242709,8430,0,11:28:52.761295
40632,38137,251558,242717,8440,0,11:28:52.801447
40628,38135,251602,242717,8450,0,11:28:52.841706
40626,38128,251548,242719,8460,0,11:28:52.881679
40630,38137,251541,242707,8470,0,11:28:52.921611
40626,38132,251543,242706,8480,0,11:28:52.961703
40627,38133,251548,242712,8490,0,11:28:53.001538
40633,38141,251547,242718,8500,0,11:28:53.042144
40625,38132,251545,242712,8510,0,11:28:53.082423
40627,38130,251550,242714,8520,0,11:28:53.122278
40646,38137,251545,242709,8530,0,11:28:53.161908
40580,38131,251545,242713,8540,0,11:28:53.202008
40653,38139,251546,242715,8550,0,11:28:53.242094
40660,38137,251561,242718,8560,0,11:28:53.282266
40623,38129,251504,242713,8570,0,11:28:53.321446
40630,38135,251575,242719,8580,0,11:28:53.362062
40630,38133,251558,242718,8590,0,11:28:53.401584
40630,38135,251549,242713,8600,0,11:28:53.442298
40634,38137,251540,242707,8610,0,11:28:53.481511
40628,38132,251540,242704,8620,0,11:28:53.522081
40632,38137,251544,242710,8630,0,11:28:53.561761
40634,38138,251545,242712,8640,0,11:28:53.601658
40626,38136,251551,242724,8650,0,11:28:53.641939
40637,38138,251548,242718,8660,0,11:28:53.682127
41844,39257,251545,242705,8670,0,11:28:53.722275
42565,39944,251544,242708,8680,0,11:28:53.761086
42543,39943,251550,242713,8690,0,11:28:53.802152
42541,39940,251573,242708,8700,0,11:28:53.841723
42561,39945,251553,242714,8710,0,11:28:53.882343
42565,39947,251474,242712,8720,0,11:28:53.922298
42561,39940,251518,242707,8730,0,11:28:53.961461
42563,39948,251554,242716,8740,0,11:28:54.001679
42558,39942,251543,242703,8750,0,11:28:54.042096
42556,39937,251550,242711,8760,0,11:28:54.081252
42560,39946,251551,242710,8770,0,11:28:54.122145
42511,39945,251549,242711,8780,0,11:28:54.161108
42557,39942,251552,242710,8790,0,11:28:54.201812
42562,39944,251547,242708,8800,0,11:28:54.241268
42567,39944,251512,242705,8810,0,11:28:54.282105
42572,39952,251545,242706,8820,0,11:28:54.322088
42595,39943,251549,242706,8830,0,11:28:54.362340
42544,39938,251559,242709,8840,0,11:28:54.401954
42560,39938,251556,242708,8850,0,11:28:54.442429
42564,39942,251580,242708,8860,0,11:28:54.481519
42561,39942,251530,242704,8870,0,11:28:54.522435
42563,39939,251545,242705,8880,0,11:28:54.561709
42563,39947,251550,242710,8890,0,11:28:54.601506
42562,39949,251549,242716,8900,0,11:28:54.641633
42576,39946,251542,242702,8910,0,11:28:54.681621
42552,39942,251545,242703,8920,0,11:28:54.722378
42562,39946,251539,242697,8930,0,11:28:54.762405
42536,39941,251556,242700,8940,0,11:28:54.801951
42573,39947,251522,242706,8950,0,11:28:54.841323
42543,39940,251545,242713,8960,0,11:28:54.882203
42597,39942,251524,242707,8970,0,11:28:54.922417
42552,39942,251547,242706,8980,0,11:28:54.961282
42565,39949,251528,242707,8990,0,11:28:55.002350
42559,39942,251575,242711,9000,0,11:28:55.041798
42561,39944,251521,242704,9010,0,11:28:55.081884
42559,39943,251538,242706,9020,0,11:28:55.122375
42557,39941,251543,242711,9030,0,11:28:55.162122
42558,39939,251540,242704,9040,0,11:28:55.201818
42572,39948,251547,242708,9050,0,11:28:55.242351
42559,39941,251540,242705,9060,0,11:28:55.281876
42614,39944,251541,242706,9070,0,11:28:55.322361
42556,39941,251551,242707,9080,0,11:28:55.362336
42532,39941,251536,242707,9090,0,11:28:55.401289
42554,39947,251577,242707,9100,0,11:28:55.441622
42603,39949,251526,242700,9110,0,11:28:55.481685
42543,39939,251516,242702,9120,0,11:28:55.522167
42560,39939,251549,242696,9130,0,11:28:55.562263
42561,39942,251602,242697,9140,0,11:28:55.602108
42557,39939,251518,242694,9150,0,11:28:55.641495
42562,39942,251545,242712,9160,0,11:28:55.681657
42558,39943,251536,242699,9170,0,11:28:55.721421
43323,40651,251542,242707,9180,0,11:28:55.761940
44594,41834,251535,242703,9190,0,11:28:55.801895
44605,41830,251541,242706,9200,0,11:28:55.842413
44603,41837,251538,242695,9210,0,11:28:55.881586
44593,41835,251568,242705,9220,0,11:28:55.921121
44569,41836,251535,242692,9230,0,11:28:55.962258
44557,41832,251576,242694,9240,0,11:28:56.002129
44649,41828,251544,242700,9250,0,11:28:56.041731
44592,41837,251527,242701,9260,0,11:28:56.081858
44595,41838,251491,242713,9270,0,11:28:56.122432
44589,41831,251581,242714,9280,0,11:28:56.162433
44589,41834,251543,242711,9290,0,11:28:56.201975
44593,41836,251551,242713,9300,0,11:28:56.242376
44590,41833,251546,242708,9310,0,11:28:56.281877
44593,41833,251547,242703,9320,0,11:28:56.322031
44588,41833,251543,242709,9330,0,11:28:56.362259
44590,41838,251553,242714,9340,0,11:28:56.402378
44596,41837,251553,242717,9350,0,11:28:56.441276
44613,41838,251549,242717,9360,0,11:28:56.481866
44610,41836,251543,242704,9370,0,11:28:56.521178
44528,41834,251543,242707,9380,0,11:28:56.561604
44581,41830,251561,242711,9390,0,11:28:56.601813
44591,41835,251554,242702,9400,0,11:28:56.642409
44588,41831,251490,242706,9410,0,11:28:56.681568
44596,41839,251568,242707,9420,0,11:28:56.722426
44588,41829,251545,242703,9430,0,11:28:56.761792
44594,41838,251544,242694,9440,0,11:28:56.802194
44590,41834,251543,242699,9450,0,11:28:56.842029
44596,41836,251544,242699,9460,0,11:28:56.881816
44593,41834,251542,242702,9470,0,11:28:56.922359
44593,41833,251541,242704,9480,0,11:28:56.962134
44581,41830,251551,242711,9490,0,11:28:57.002201
44590,41833,251533,242708,9500,0,11:28:57.041276
44622,41836,251543,242706,9510,0,11:28:57.082212
44627,41836,251507,242703,9520,0,11:28:57.121842
44580,41836,251547,242708,9530,0,11:28:57.161971
44590,41832,251569,242709,9540,0,11:28:57.202396
44589,41835,251554,242701,9550,0,11:28:57.241203
44593,41839,251524,242698,9560,0,11:28:57.281617
44591,41833,251539,242702,9570,0,11:28:57.321639
44591,41832,251533,242701,9580,0,11:28:57.362014
44596,41837,251538,242694,9590,0,11:28:57.402402
44595,41835,251538,242701,9600,0,11:28:57.441265
44611,41833,251542,242704,9610,0,11:28:57.482093
44591,41840,251539,242704,9620,0,11:28:57.521529
44608,41841,251547,242711,9630,0,11:28:57.562405
44582,41836,251559,242706,9640,0,11:28:57.591573
44615,41833,251536,242702,9650,0,11:28:57.642426
44623,41832,251540,242698,9660,0,11:28:57.681249
44563,41839,251539,242704,9670,0,11:28:57.721514
44588,41830,251525,242702,9680,0,11:28:57.761306
44973,42195,251574,242703,9690,0,11:28:57.801990
46649,43767,251504,242693,9700,0,11:28:57.841757
46650,43765,251541,242700,9710,0,11:28:57.882386
46650,43764,251536,242700,9720,0,11:28:57.921343
46645,43761,251547,242696,9730,0,11:28:57.962424
46648,43757,251539,242686,9740,0,11:28:58.001520
46650,43757,251542,242697,9750,0,11:28:58.042441
46652,43759,251545,242695,9760,0,11:28:58.081998
46662,43758,251541,242694,9770,0,11:28:58.112483
46649,43754,251539,242691,9780,0,11:28:58.152189
46621,43758,251542,242697,9790,0,11:28:58.192494
46708,43762,251546,242698,9800,0,11:28:58.231851
46627,43758,251551,242693,9810,0,11:28:58.271662
46648,43760,251505,242698,9820,0,11:28:58.311984
46650,43758,251634,242692,9830,0,11:28:58.352333
46644,43752,251515,242693,9840,0,11:28:58.392323
46653,43762,251540,242693,9850,0,11:28:58.431969
46650,43758,251535,242693,9860,0,11:28:58.472579
46645,43758,251534,242686,9870,0,11:28:58.511513
46647,43757,251533,242685,9880,0,11:28:58.552022
46643,43752,251531,242691,9890,0,11:28:58.591729
46648,43757,251532,242682,9900,0,11:28:58.631531
46646,43757,251534,242684,9910,0,11:28:58.671632
46628,43759,251531,242689,9920,0,11:28:58.712298
46620,43757,251536,242685,9930,0,11:28:58.751663
46679,43759,251536,242691,9940,0,11:28:58.792276
46635,43759,251531,242691,9950,0,11:28:58.832275
46647,43759,251521,242694,9960,0,11:28:58.872194
46648,43759,251561,242692,9970,0,11:28:58.912452
46652,43763,251522,242693,9980,0,11:28:58.951517
46645,43756,251535,242679,9990,0,11:28:58.991460
46645,43756,251535,242689,10000,0,11:28:59.031839
46649,43759,251538,242694,10010,0,11:28:59.071674
46649,43761,251539,242696,10020,0,11:28:59.111836
46649,43764,251534,242692,10030,0,11:28:59.151426
46654,43767,251533,242689,10040,0,11:28:59.191364
46670,43752,251533,242693,10050,0,11:28:59.232127
46671,43765,251530,242696,10060,0,11:28:59.271581
46631,43765,251531,242696,10070,0,11:28:59.311611
46625,43757,251546,242684,10080,0,11:28:59.351500
46649,43761,251538,242688,10090,0,11:28:59.391638
46645,43757,251520,242694,10100,0,11:28:59.431804
46642,43748,251530,242690,10110,0,11:28:59.471651
46651,43759,251535,242699,10120,0,11:28:59.512368
46646,43755,251534,242684,10130,0,11:28:59.551607
46651,43758,251537,242692,10140,0,11:28:59.591649
46647,43756,251535,242693,10150,0,11:28:59.631928
46648,43763,251537,242693,10160,0,11:28:59.671896
46645,43758,251532,242691,10170,0,11:28:59.712094
46646,43760,251530,242682,10180,0,11:28:59.752280
46643,43751,251536,242691,10190,0,11:28:59.791929
46696,43756,251539,242695,10200,0,11:28:59.831833
48682,45632,251532,242681,10210,0,11:28:59.871711
48634,45627,251537,242694,10220,0,11:28:59.912196
48638,45630,251572,242688,10230,0,11:28:59.952415
48640,45630,251504,242696,10240,0,11:28:59.991892
48641,45629,251531,242689,10250,0,11:29:00.032522
48642,45636,251531,242690,10260,0,11:29:00.082391
48643,45635,251534,242695,10280,-10,11:29:00.152140
48640,45631,251534,242694,10290,0,11:29:00.191359
48643,45632,251530,242680,10300,0,11:29:00.231824
48645,45632,251533,242694,10310,0,11:29:00.271638
48638,45623,251527,242686,10320,0,11:29:00.312492
48637,45626,251537,242696,10330,0,11:29:00.362260
48628,45626,251530,242689,10340,0,11:29:00.391615
48690,45632,251572,242684,10350,0,11:29:00.432332
48590,45626,251531,242681,10360,0,11:29:00.471635
48641,45635,251514,242677,10370,0,11:29:00.511473
48639,45632,251554,242686,10380,0,11:29:00.551946
48633,45625,251490,242691,10390,0,11:29:00.592677
48634,45623,251524,242681,10400,0,11:29:00.631609
48635,45622,251529,242688,10410,0,11:29:00.671660
48637,45623,251525,242685,10420,0,11:29:00.711216
48637,45627,251525,242682,10430,0,11:29:00.752625
48636,45630,251533,242689,10440,0,11:29:00.792200
48641,45629,251524,242683,10450,0,11:29:00.832252
48659,45631,251523,242684,10460,0,11:29:00.871659
48553,45625,251516,242679,10470,0,11:29:00.911355
48718,45628,251528,242684,10480,0,11:29:00.952528
48617,45622,251544,242686,10490,0,11:29:00.991539
48643,45633,251509,242677,10500,0,11:29:01.031777
48641,45630,251566,242687,10510,0,11:29:01.071463
48640,45629,251497,242681,10520,0,11:29:01.112388
48634,45622,251521,242684,10530,0,11:29:01.152743
48635,45623,251521,242682,10540,0,11:29:01.191699
48635,45625,251520,242684,10550,0,11:29:01.232140
48641,45632,251520,242679,10560,0,11:29:01.272160
48636,45626,251524,242679,10570,0,11:29:01.312547
48639,45629,251521,242676,10580,0,11:29:01.352223
48634,45624,251524,242679,10590,0,11:29:01.391421
48638,45628,251524,242682,10600,0,11:29:01.432030
48683,45629,251525,242685,10610,0,11:29:01.471686
48599,45624,251525,242686,10620,0,11:29:01.512483
48695,45630,251533,242689,10630,0,11:29:01.552518
48625,45627,251532,242687,10640,0,11:29:01.592356
48635,45626,251414,242676,10650,0,11:29:01.632108
48635,45623,251571,242691,10660,0,11:29:01.671697
48637,45630,251496,242681,10670,0,11:29:01.711752
48637,45627,251528,242692,10680,0,11:29:01.751671
48639,45629,251527,242683,10690,0,11:29:01.791525
48637,45624,251529,242684,10700,0,11:29:01.831563
48634,45622,251528,242680,10710,0,11:29:01.871881
50331,47186,251523,242684,10720,0,11:29:01.911664
50690,47555,251520,242674,10730,0,11:29:01.952456
50684,47551,251519,242676,10740,0,11:29:01.991698
50688,47553,251522,242680,10750,0,11:29:02.032126
50723,47553,251530,242682,10760,0,11:29:02.071649
50664,47558,251531,242683,10770,0,11:29:02.111661
50713,47557,251533,242691,10780,0,11:29:02.152034
50670,47550,251553,242683,10790,0,11:29:02.192474
50690,47554,251528,242683,10800,0,11:29:02.232477
50689,47552,251559,242690,10810,0,11:29:02.272119
50684,47547,251511,242690,10820,0,11:29:02.311542
50686,47553,251523,242685,10830,0,11:29:02.351415
50685,47551,251520,242678,10840,0,11:29:02.391979
50686,47549,251527,242691,10850,0,11:29:02.431778
50687,47549,251525,242680,10860,0,11:29:02.471714
50683,47544,251525,242681,10870,0,11:29:02.512183
50684,47544,251521,242679,10880,0,11:29:02.551644
50685,47551,251520,242679,10890,0,11:29:02.592445
50691,47554,251526,242685,10900,0,11:29:02.631783
50676,47542,251521,242677,10910,0,11:29:02.672229
50682,47551,251524,242681,10920,0,11:29:02.711335
50690,47551,251523,242679,10930,0,11:29:02.751413
50675,47551,251538,242683,10940,0,11:29:02.791601
50691,47554,251520,242681,10950,0,11:29:02.832070
50679,47542,251586,242679,10960,0,11:29:02.871573
50686,47549,251496,242679,10970,0,11:29:02.912413
50684,47544,251523,242681,10980,0,11:29:02.952544
50684,47547,251520,242678,10990,0,11:29:02.992327
50686,47551,251520,242676,11000,0,11:29:03.031415
50685,47543,251515,242675,11010,0,11:29:03.071669
50686,47552,251523,242683,11020,0,11:29:03.111724
50682,47546,251521,242679,11030,0,11:29:03.152482
50683,47548,251526,242678,11040,0,11:29:03.192345
50709,47549,251525,242685,11050,0,11:29:03.231678
50646,47544,251524,242688,11060,0,11:29:03.272170
50683,47547,251532,242686,11070,0,11:29:03.311696
50662,47549,251519,242669,11080,0,11:29:03.352459
50683,47548,251500,242672,11090,0,11:29:03.391679
50685,47548,251536,242683,11100,0,11:29:03.432307
50680,47543,251569,242688,11110,0,11:29:03.472389
50686,47551,251519,242679,11120,0,11:29:03.512169
50685,47547,251530,242693,11130,0,11:29:03.551685
50684,47552,251531,242680,11140,0,11:29:03.592352
50688,47548,251527,242683,11150,0,11:29:03.632302
50688,47550,251525,242684,11160,0,11:29:03.672572
50683,47543,251524,242676,11170,0,11:29:03.712401
50690,47547,251528,242680,11180,0,11:29:03.751652
50688,47550,251522,242679,11190,0,11:29:03.791695
50723,47549,251521,242681,11200,0,11:29:03.832092
50653,47545,251522,242679,11210,0,11:29:03.871945
50717,47551,251542,242688,11220,0,11:29:03.911680
51869,48680,251537,242688,11230,0,11:29:03.951391
52618,49360,251466,242681,11240,0,11:29:03.992455
52620,49364,251550,242672,11250,0,11:29:04.031671
52619,49362,251526,242676,11260,0,11:29:04.072803
52622,49369,251518,242672,11270,0,11:29:04.111644
52616,49360,251522,242685,11280,0,11:29:04.152382
52623,49371,251521,242679,11290,0,11:29:04.191340
52622,49368,251519,242680,11300,0,11:29:04.231535
52620,49363,251516,242673,11310,0,11:29:04.272127
52619,49361,251517,242687,11320,0,11:29:04.311498
52622,49369,251521,242685,11330,0,11:29:04.351431
52620,49363,251515,242676,11340,0,11:29:04.391961
52637,49374,251518,242683,11350,0,11:29:04.432448
52641,49370,251517,242676,11360,0,11:29:04.472514
52658,49360,251511,242677,11370,0,11:29:04.512079
52590,49358,251535,242682,11380,0,11:29:04.552193
52616,49359,251506,242688,11390,0,11:29:04.591788
52617,49362,251492,242678,11400,0,11:29:04.631946
52617,49363,251495,242671,11410,0,11:29:04.671963
52619,49364,251512,242672,11420,0,11:29:04.711757
52613,49362,251517,242675,11430,0,11:29:04.751927
52618,49362,251521,242682,11440,0,11:29:04.791540
52620,49366,251520,242672,11450,0,11:29:04.831678
52623,49365,251515,242676,11460,0,11:29:04.871644
52617,49363,251519,242678,11470,0,11:29:04.911360
52622,49366,251520,242680,11480,0,11:29:04.952673
52623,49366,251512,242676,11490,0,11:29:04.991707
52578,49359,251515,242677,11500,0,11:29:05.032557
52644,49369,251518,242675,11510,0,11:29:05.072257
52661,49364,251521,242688,11520,0,11:29:05.111361
52604,49365,251528,242685,11530,0,11:29:05.151631
52615,49355,251541,242676,11540,0,11:29:05.191667
52621,49368,251513,242682,11550,0,11:29:05.232110
52619,49365,251498,242683,11560,0,11:29:05.271504
52617,49363,251513,242675,11570,0,11:29:05.311653
52620,49365,251516,242675,11580,0,11:29:05.351697
52616,49365,251514,242676,11590,0,11:29:05.391515
52619,49363,251516,242676,11600,0,11:29:05.431523
52618,49362,251515,242679,11610,0,11:29:05.471554
52624,49370,251518,242672,11620,0,11:29:05.512467
52613,49357,251518,242677,11630,0,11:29:05.551625
52633,49364,251520,242681,11640,0,11:29:05.591710
52591,49367,251518,242677,11650,0,11:29:05.632313
52586,49365,251516,242670,11660,0,11:29:05.671638
52674,49370,251540,242687,11670,0,11:29:05.712526
52613,49366,251512,242676,11680,0,11:29:05.752582
52621,49366,251512,242672,11690,0,11:29:05.792089
52623,49369,251548,242679,11700,0,11:29:05.831682
52618,49362,251499,242675,11710,0,11:29:05.871503
52615,49360,251518,242685,11720,0,11:29:05.912383
52615,49364,251516,242680,11730,0,11:29:05.952206
53521,50212,251517,242679,11740,0,11:29:05.992200
54670,51288,251514,242680,11750,0,11:29:06.032140
54675,51296,251514,242678,11760,0,11:29:06.071663
54669,51288,251519,242673,11770,0,11:29:06.111929
54669,51291,251520,242682,11780,0,11:29:06.151545
54677,51288,251509,242673,11790,0,11:29:06.192800
54698,51297,251512,242677,11800,0,11:29:06.232060
54646,51296,251513,242676,11810,0,11:29:06.272152
54659,51294,251543,242671,11820,0,11:29:06.311834
54668,51286,251500,242683,11830,0,11:29:06.352541
54669,51295,251446,242683,11840,0,11:29:06.391243
54665,51289,251536,242674,11850,0,11:29:06.432046
54669,51289,251510,242681,11860,0,11:29:06.472051
54670,51297,251511,242672,11870,0,11:29:06.511687
54669,51290,251506,242673,11880,0,11:29:06.551409
54674,51294,251504,242665,11890,0,11:29:06.591657
54669,51295,251507,242672,11900,0,11:29:06.631690
54674,51297,251510,242673,11910,0,11:29:06.675420
54666,51286,251506,242670,11920,0,11:29:06.712342
54666,51286,251511,242674,11930,0,11:29:06.751646
54674,51291,251512,242683,11940,0,11:29:06.791990
54703,51292,251506,242672,11950,0,11:29:06.832420
54655,51291,251505,242664,11960,0,11:29:06.872256
54641,51283,251525,242673,11970,0,11:29:06.912145
54670,51292,251551,242669,11980,0,11:29:06.952175
54666,51286,251470,242668,11990,0,11:29:06.992093
54666,51292,251571,242676,12000,0,11:29:07.032306
54668,51292,251507,242677,12010,0,11:29:07.071565
54668,51288,251509,242673,12020,0,11:29:07.111697
54670,51291,251507,242663,12030,0,11:29:07.151522
54667,51289,251511,242672,12040,0,11:29:07.191949
54671,51291,251518,242677,12050,0,11:29:07.231597
54670,51293,251511,242670,12060,0,11:29:07.271519
54674,51291,251519,242675,12070,0,11:29:07.311682
54672,51295,251509,242666,12080,0,11:29:07.351717
54675,51295,251507,242666,12090,0,11:29:07.392155
54674,51289,251511,242667,12100,0,11:29:07.431814
54705,51300,251517,242671,12110,0,11:29:07.471565
54640,51290,251522,242684,12120,0,11:29:07.511669
54667,51285,251536,242683,12130,0,11:29:07.553027
54670,51289,251530,242676,12140,0,11:29:07.591676
54671,51290,251500,242671,12150,0,11:29:07.632273
54669,51289,251509,242674,12160,0,11:29:07.671471
54668,51291,251513,242672,12170,0,11:29:07.711672
54671,51286,251514,242678,12180,0,11:29:07.751438
54667,51286,251513,242675,12190,0,11:29:07.791506
54667,51287,251514,242674,12200,0,11:29:07.831686
54672,51291,251514,242676,12210,0,11:29:07.871294
54676,51295,251513,242678,12220,0,11:29:07.912370
54696,51292,251512,242674,12230,0,11:29:07.951539
54696,51289,251507,242671,12240,0,11:29:07.991667
55146,51764,251509,242673,12250,0,11:29:08.032045
56690,53170,251509,242677,12260,0,11:29:08.072356
56508,53173,251510,242666,12270,0,11:29:08.112477
56522,53176,251476,242669,12280,0,11:29:08.151399
56518,53170,251527,242680,12290,0,11:29:08.191687
56519,53173,251476,242667,12300,0,11:29:08.231421
56522,53175,251503,242667,12310,0,11:29:08.271698
56520,53171,251511,242670,12320,0,11:29:08.312527
56528,53177,251515,242672,12330,0,11:29:08.352229
56516,53167,251510,242668,12340,0,11:29:08.391718
56519,53167,251511,242670,12350,0,11:29:08.432185
56518,53167,251514,242674,12360,0,11:29:08.471775
56518,53174,251509,242670,12370,0,11:29:08.511935
56522,53172,251516,242674,12380,0,11:29:08.552215
56500,53179,251507,242676,12390,0,11:29:08.591700
56479,53170,251507,242665,12400,0,11:29:08.631495
56579,53175,251500,242662,12410,0,11:29:08.671705
56502,53164,251525,242676,12420,0,11:29:08.712327
56522,53174,251499,242674,12430,0,11:29:08.754571
56521,53175,251547,242674,12440,0,11:29:08.791718
56515,53174,251484,242668,12450,0,11:29:08.832186
56518,53173,251505,242664,12460,0,11:29:08.872538
56516,53168,251505,242665,12470,0,11:29:08.912305
56516,53170,251510,242678,12480,0,11:29:08.951978
56518,53170,251507,242677,12490,0,11:29:08.991652
56519,53171,251507,242672,12500,0,11:29:09.031422
56520,53173,251504,242667,12510,0,11:29:09.071382
56517,53171,251510,242676,12520,0,11:29:09.112057
56512,53165,251503,242667,12530,0,11:29:09.151846
56541,53170,251501,242670,12540,0,11:29:09.192252
56464,53177,251500,242665,12550,0,11:29:09.232424
56566,53175,251497,242673,12560,0,11:29:09.272313
56472,53167,251520,242671,12570,0,11:29:09.311658
56518,53171,251450,242662,12580,0,11:29:09.352611
56517,53170,251556,242667,12590,0,11:29:09.391433
56518,53170,251471,242670,12600,0,11:29:09.432472
56514,53170,251495,242663,12610,0,11:29:09.471454
56515,53167,251497,242665,12620,0,11:29:09.511653
56519,53174,251495,242665,12630,0,11:29:09.551620
56519,53171,251503,242673,12640,0,11:29:09.591832
56520,53169,251502,242668,12650,0,11:29:09.632165
56519,53175,251505,242669,12660,0,11:29:09.671675
56518,53172,251508,242671,12670,0,11:29:09.712256
56522,53174,251495,242655,12680,0,11:29:09.752054
56546,53165,251499,242665,12690,0,11:29:09.791953
56449,53175,251502,242665,12700,0,11:29:09.832037
56556,53173,251492,242654,12710,0,11:29:09.871510
56506,53174,251516,242657,12720,0,11:29:09.911638
56518,53170,251391,242654,12730,0,11:29:09.951662
56523,53177,251616,242662,12740,0,11:29:09.991981
56517,53167,251478,242656,12750,0,11:29:10.031232
56638,53288,251499,242659,12760,0,11:29:10.071672
58443,54977,251496,242668,12770,0,11:29:10.112305
58443,54974,251498,242662,12780,0,11:29:10.152181
58442,54978,251500,242662,12790,0,11:29:10.192483
58442,54974,251502,242664,12800,0,11:29:10.231619
58446,54979,251493,242658,12810,0,11:29:10.271566
58442,54976,251497,242664,12820,0,11:29:10.311515
58445,54981,251494,242660,12830,0,11:29:10.351445
58445,54979,251500,242664,12840,0,11:29:10.392536
58426,54969,251498,242660,12850,0,11:29:10.431600
58427,54973,251496,242658,12860,0,11:29:10.471981
58439,54972,251519,242653,12870,0,11:29:10.511693
58439,54974,251457,242659,12880,0,11:29:10.552568
58439,54973,251547,242654,12890,0,11:29:10.592050
58439,54974,251478,242660,12900,0,11:29:10.632141
58438,54976,251487,242651,12910,0,11:29:10.672192
58434,54970,251492,242654,12920,0,11:29:10.711663
58437,54973,251499,242665,12930,0,11:29:10.752014
58444,54977,251496,242659,12940,0,11:29:10.791514
58442,54973,251496,242659,12950,0,11:29:10.832158
58442,54977,251491,242653,12960,0,11:29:10.871610
58438,54975,251497,242655,12970,0,11:29:10.911291
58423,54974,251515,242659,12980,0,11:29:10.951925
58480,54974,251490,242657,12990,0,11:29:10.992369
58501,54980,251487,242656,13000,0,11:29:11.032633
58428,54971,251472,242659,13010,0,11:29:11.072272
58440,54977,251522,242652,13020,0,11:29:11.112446
58442,54976,251385,242655,13030,0,11:29:11.152293
58442,54978,251498,242661,13040,0,11:29:11.192443
58441,54975,251489,242661,13050,0,11:29:11.232100
58440,54972,251492,242656,13060,0,11:29:11.272062
58439,54971,251495,242655,13070,0,11:29:11.311377
58437,54971,251488,242652,13080,0,11:29:11.352065
58442,54979,251495,242658,13090,0,11:29:11.392106
58438,54977,251490,242656,13100,0,11:29:11.432290
58448,54978,251494,242652,13110,0,11:29:11.471877
58446,54972,251495,242660,13120,0,11:29:11.511852
58395,54970,251499,242666,13130,0,11:29:11.551484
58506,54973,251505,242663,13140,0,11:29:11.591960
58426,54976,251497,242667,13150,0,11:29:11.632855
58447,54982,251476,242661,13160,0,11:29:11.681724
58442,54974,251495,242663,13170,0,11:29:11.711645
58438,54972,251472,242655,13180,0,11:29:11.752536
58439,54970,251501,242667,13190,0,11:29:11.792389
58446,54981,251498,242657,13200,0,11:29:11.831412
58440,54973,251499,242664,13210,0,11:29:11.872205
58442,54976,251495,242653,13220,0,11:29:11.912635
58456,54979,251497,242660,13230,0,11:29:11.951275
58421,54973,251493,242659,13240,0,11:29:11.992353
58437,54969,251501,242666,13250,0,11:29:12.031401
58439,54977,251496,242659,13260,0,11:29:12.071720
60249,56661,251497,242662,13270,0,11:29:12.112317
60479,56905,251499,242660,13280,0,11:29:12.152255
60572,56906,251501,242654,13290,0,11:29:12.192387
60474,56905,251534,242657,13300,0,11:29:12.231642
60506,56915,251459,242655,13310,0,11:29:12.272418
60499,56904,251502,242665,13320,0,11:29:12.312446
60498,56907,251484,242661,13330,0,11:29:12.351224
60505,56913,251503,242666,13340,0,11:29:12.392460
60500,56904,251501,242666,13350,0,11:29:12.431543
60498,56904,251498,242664,13360,0,11:29:12.472405
60505,56915,251498,242665,13370,0,11:29:12.512248
60518,56909,251499,242661,13380,0,11:29:12.552119
60500,56910,251496,242659,13390,0,11:29:12.592725
60499,56906,251499,242663,13400,0,11:29:12.631807
60481,56911,251503,242658,13410,0,11:29:12.672400
60523,56907,251468,242665,13420,0,11:29:12.711484
60416,56904,251493,242662,13430,0,11:29:12.752401
60515,56910,251492,242660,13440,0,11:29:12.792440
60485,56910,251509,242671,13450,0,11:29:12.832037
60502,56911,251454,242655,13460,0,11:29:12.872076
60498,56908,251574,242659,13470,0,11:29:12.912405
60501,56908,251465,242663,13480,0,11:29:12.952034
60506,56912,251501,242658,13490,0,11:29:12.992262
60497,56900,251501,242656,13500,0,11:29:13.032197
60507,56913,251499,242654,13510,0,11:29:13.072202
60502,56908,251502,242666,13520,0,11:29:13.112032
60511,56915,251495,242663,13530,0,11:29:13.151275
60501,56906,251497,242663,13540,0,11:29:13.192429
60546,56913,251497,242665,13550,0,11:29:13.231770
60496,56910,251503,242662,13560,0,11:29:13.272403
60524,56910,251488,242655,13570,0,11:29:13.311440
60483,56914,251493,242662,13580,0,11:29:13.352499
60510,56907,251466,242662,13590,0,11:29:13.392393
60499,56911,251522,242666,13600,0,11:29:13.432037
60501,56906,251448,242663,13610,0,11:29:13.472446
60500,56904,251572,242666,13620,0,11:29:13.511284
60503,56910,251477,242660,13630,0,11:29:13.552078
60502,56907,251494,242662,13640,0,11:29:13.591104
60505,56911,251493,242655,13650,0,11:29:13.631720
60502,56906,251492,242658,13660,0,11:29:13.671450
60505,56910,251488,242650,13670,0,11:29:13.711445
60498,56902,251490,242648,13680,0,11:29:13.751742
60496,56909,251493,242657,13690,0,11:29:13.791874
60515,56910,251493,242651,13700,0,11:29:13.831738
60506,56908,251502,242657,13710,0,11:29:13.872423
60501,56905,251488,242663,13720,0,11:29:13.911283
60427,56900,251514,242656,13730,0,11:29:13.951601
60560,56908,251486,242660,13740,0,11:29:13.992455
60503,56911,251524,242657,13750,0,11:29:14.031188
60500,56903,251467,242656,13760,0,11:29:14.072479
60498,56903,251571,242658,13770,0,11:29:14.112121
61855,58243,251481,242659,13780,0,11:29:14.152427
62465,58851,251499,242662,13790,0,11:29:14.192403
62463,58846,251496,242660,13800,0,11:29:14.232421
62461,58849,251496,242663,13810,0,11:29:14.272422
62491,58856,251494,242656,13820,0,11:29:14.312760
62441,58845,251496,242655,13830,0,11:29:14.352384
62464,58849,251499,242658,13840,0,11:29:14.392420
62463,58850,251501,242659,13850,0,11:29:14.431566
62472,58847,251460,242653,13860,0,11:29:14.471613
62472,58856,251495,242655,13870,0,11:29:14.512758
62491,58852,251501,242657,13880,0,11:29:14.552371
62443,58849,251513,242659,13890,0,11:29:14.591673
62468,58848,251490,242653,13900,0,11:29:14.632249
62464,58848,251475,242663,13910,0,11:29:14.672425
62462,58846,251481,242652,13920,0,11:29:14.712227
62463,58848,251495,242657,13930,0,11:29:14.751279
62467,58856,251494,242657,13940,0,11:29:14.792006
62466,58849,251493,242654,13950,0,11:29:14.832370
62460,58844,251498,242657,13960,0,11:29:14.872426
62460,58844,251497,242654,13970,0,11:29:14.912185
62461,58852,251490,242657,13980,0,11:29:14.952435
62465,58855,251493,242651,13990,0,11:29:14.992702
62437,58847,251522,242657,14000,0,11:29:15.031370
62465,58851,251476,242652,14010,0,11:29:15.063455
62456,58847,251492,242651,14020,0,11:29:15.101481
62499,58851,251494,242658,14030,0,11:29:15.152225
62450,58848,251512,242660,14040,0,11:29:15.192345
62462,58844,251496,242652,14050,0,11:29:15.231150
62464,58849,251439,242654,14060,0,11:29:15.271279
62465,58853,251480,242653,14070,0,11:29:15.312401
62461,58843,251493,242656,14080,0,11:29:15.352435
62463,58845,251492,242654,14090,0,11:29:15.392211
62466,58852,251493,242654,14100,0,11:29:15.431181
62463,58846,251493,242654,14110,0,11:29:15.461734
62456,58843,251493,242660,14120,0,11:29:15.512272
62461,58850,251499,242656,14130,0,11:29:15.541528
62461,58850,251494,242654,14140,0,11:29:15.582392
62457,58840,251496,242656,14150,0,11:29:15.621705
62464,58843,251494,242649,14160,0,11:29:15.662251
62426,58855,251495,242655,14170,0,11:29:15.702228
62499,58851,251494,242656,14180,0,11:29:15.742208
62404,58850,251538,242665,14190,0,11:29:15.782355
62459,58844,251450,242659,14200,0,11:29:15.822550
62457,58844,251524,242654,14210,0,11:29:15.861600
62468,58855,251462,242651,14220,0,11:29:15.902362
62459,58848,251489,242645,14230,0,11:29:15.942414
62460,58848,251498,242657,14240,0,11:29:15.982345
62457,58845,251491,242651,14250,0,11:29:16.021163
62460,58846,251486,242648,14260,0,11:29:16.062036
62458,58845,251492,242653,14270,0,11:29:16.102172
62464,58850,251494,242652,14280,0,11:29:16.151247
63514,59795,251492,242649,14290,0,11:29:16.182211
64484,60748,251489,242654,14300,0,11:29:16.222304
64450,60740,251487,242651,14310,0,11:29:16.261685
64491,60739,251487,242645,14320,0,11:29:16.302142
64483,60743,251483,242646,14330,0,11:29:16.341740
64459,60743,251505,242656,14340,0,11:29:16.381486
64474,60738,251523,242657,14350,0,11:29:16.422769
64485,60748,251472,242658,14360,0,11:29:16.462165
64483,60746,251494,242651,14370,0,11:29:16.501712
64481,60748,251492,242654,14380,0,11:29:16.542176
64473,60734,251493,242657,14390,0,11:29:16.582336
64479,60742,251490,242655,14400,0,11:29:16.622178
64482,60749,251493,242656,14410,0,11:29:16.661632
64481,60748,251497,242655,14420,0,11:29:16.701921
64482,60745,251494,242662,14430,0,11:29:16.741732
64478,60744,251496,242665,14440,0,11:29:16.782536
64491,60739,251493,242653,14450,0,11:29:16.821679
64471,60742,251492,242655,14460,0,11:29:16.862250
64519,60738,251488,242651,14470,0,11:29:16.902372
64533,60750,251488,242651,14480,0,11:29:16.942168
64453,60739,251491,242653,14490,0,11:29:16.981436
64476,60739,251512,242654,14500,0,11:29:17.022175
64479,60741,251476,242658,14510,0,11:29:17.061275
64483,60747,251456,242660,14520,0,11:29:17.102121
64473,60735,251493,242649,14530,0,11:29:17.141732
64483,60749,251487,242648,14540,0,11:29:17.182486
64480,60751,251490,242653,14550,0,11:29:17.222287
64479,60738,251488,242650,14560,0,11:29:17.262187
64484,60746,251493,242654,14570,0,11:29:17.301437
64478,60744,251495,242653,14580,0,11:29:17.341425
64476,60743,251488,242654,14590,0,11:29:17.382401
64496,60746,251489,242658,14600,0,11:29:17.421490
64409,60738,251491,242657,14610,0,11:29:17.461710
64463,60739,251486,242656,14620,0,11:29:17.501408
64544,60751,251495,242658,14630,0,11:29:17.541511
64473,60744,251466,242657,14640,0,11:29:17.582526
64478,60739,251512,242661,14650,0,11:29:17.624374
64476,60741,251517,242652,14660,0,11:29:17.662112
64477,60737,251433,242650,14670,0,11:29:17.702076
64480,60744,251480,242652,14680,0,11:29:17.742203
64474,60736,251469,242645,14690,0,11:29:17.782000
64471,60729,251469,242637,14700,0,11:29:17.821930
64470,60730,251471,242648,14710,0,11:29:17.861657
64474,60737,251473,242648,14720,0,11:29:17.902432
64472,60734,251471,242646,14730,0,11:29:17.942087
64476,60741,251468,242638,14740,0,11:29:17.981522
64486,60734,251469,242648,14750,0,11:29:18.021681
64459,60741,251467,242645,14760,0,11:29:18.062171
64449,60737,251468,242643,14770,0,11:29:18.102260
64508,60740,251495,242637,14780,0,11:29:18.142380
64467,60737,251454,242641,14790,0,11:29:18.182184
65120,61345,251468,242636,14800,0,11:29:18.221409
66549,62684,251495,242645,14810,0,11:29:18.262002
66542,62681,251440,242648,14820,0,11:29:18.301971
66621,62702,251904,242865,14830,0,11:29:18.341340
68162,63979,259171,250063,14840,0,11:29:18.382317
69791,66756,269617,265930,14850,0,11:29:18.421729
73526,71829,291246,287753,14860,0,11:29:18.461474
72670,65790,283587,255332,14870,0,11:29:18.501187
69567,65240,271621,248630,14880,0,11:29:18.542254
68134,65786,268471,253402,14890,0,11:29:18.582031
68753,66149,270193,256317,14900,0,11:29:18.621899
68899,66212,270645,256704,14910,0,11:29:18.662220
68833,66207,270627,256673,14920,0,11:29:18.701905
72159,68714,283019,267856,14930,0,11:29:18.742301
73627,74729,288808,297233,14940,0,11:29:18.781544
168249,198191,472416,490423,14950,0,11:29:18.822547
351529,378145,524287,524287,14960,0,11:29:18.862866
277908,290651,515071,515071,14970,0,11:29:18.902196
76450,78548,201822,201780,14980,0,11:29:18.942127
180743,155762,175788,214024,14990,0,11:29:18.981783
318541,220741,347753,305015,15000,0,11:29:19.022261
305065,190338,385007,243977,15010,0,11:29:19.061457
273609,170989,358443,209126,15020,0,11:29:19.101868
313750,241145,302621,322112,15030,0,11:29:19.142218
385584,349953,305896,304185,15040,0,11:29:19.182102
314743,372466,309330,301792,15050,0,11:29:19.222176
267176,365237,327214,303402,15060,0,11:29:19.261798
392663,388793,480235,320974,15070,0,11:29:19.301456
428654,402295,524287,344933,15080,0,11:29:19.342450
429233,405997,524287,374407,15090,0,11:29:19.381722
451559,418820,524287,483394,15100,0,11:29:19.427286
467996,357548,524287,488048,15110,0,11:29:19.462349
356626,217416,462195,282347,15120,0,11:29:19.501943
353190,218549,463763,278113,15130,0,11:29:19.541972
405751,279245,524048,373631,15140,0,11:29:19.581766
409761,342229,524287,495515,15150,0,11:29:19.622309
373259,368148,490107,500966,15160,0,11:29:19.662461
372593,393093,425704,428098,15170,0,11:29:19.702061
386391,397327,452330,457770,15180,0,11:29:19.741895
413552,403784,513965,520648,15190,0,11:29:19.801183
426225,408581,524153,524287,15200,0,11:29:19.841661
413258,416881,437065,511596,15210,0,11:29:19.862339
409801,409609,377759,419533,15220,0,11:29:19.901498
414480,404633,385358,396351,15230,0,11:29:19.942316
416524,402428,383530,373462,15240,0,11:29:19.982476
417770,397699,373704,334413,15250,0,11:29:20.022289
417792,397211,394149,378635,15260,0,11:29:20.081511
413031,413941,416357,478366,15270,0,11:29:20.121877
407378,409701,386635,419470,15280,0,11:29:20.142043
401662,410683,385937,434938,15290,0,11:29:20.181516
400507,413760,398192,475945,15300,0,11:29:20.221899
397889,410085,403944,484774,15310,0,11:29:20.262430
393756,386201,374853,381105,15320,0,11:29:20.302023
392445,381933,381672,383787,15330,0,11:29:20.341739
400444,397482,457887,494898,15340,0,11:29:20.381519
397816,404821,446431,512798,15350,0,11:29:20.432109
385925,407019,391199,494180,15360,0,11:29:20.461590
382513,399257,382710,470066,15370,0,11:29:20.502227
385684,396121,413722,487525,15380,0,11:29:20.542134
384800,386716,402312,446009,15390,0,11:29:20.581933
386381,375603,389251,391620,15400,0,11:29:20.622336
403752,369522,497870,460615,15410,0,11:29:20.661973
416403,365030,523723,462947,15420,0,11:29:20.712071
403853,398593,495525,507925,15430,0,11:29:20.752138
392911,401859,454504,500665,15440,0,11:29:20.782577
390492,402200,451356,503934,15450,0,11:29:20.822138
379700,396066,411430,481048,15460,0,11:29:20.862717
337893,295965,419124,349495,15470,0,11:29:20.901802
192862,167105,220595,177750,15480,0,11:29:20.942018
185578,162009,213027,171920,15490,0,11:29:20.982502
282171,245121,347426,282065,15500,0,11:29:21.022327
366342,395626,400610,478420,15510,0,11:29:21.071147
371822,395614,415972,480369,15520,0,11:29:21.102339
355589,311553,439985,363643,15530,0,11:29:21.141884
281366,244601,335046,271306,15540,0,11:29:21.182079
268450,232099,321831,258324,15550,0,11:29:21.222076
306655,262650,378399,302105,15560,0,11:29:21.261971
367569,347307,462682,421332,15570,0,11:29:21.321910
361608,358702,324702,286630,15580,0,11:29:21.342387
363803,352789,325986,264056,15590,0,11:29:21.391378
366966,372546,356354,335466,15600,0,11:29:21.431989
370761,402874,392520,465911,15610,0,11:29:21.461935
388151,409814,470641,522849,15620,0,11:29:21.502277
369432,392094,391300,430574,15630,0,11:29:21.542184
357130,344545,311327,241310,15640,0,11:29:21.582303
360125,338899,309730,223813,15650,0,11:29:21.622160
365157,340794,322435,232844,15660,0,11:29:21.662057
370936,357740,359003,297632,15670,0,11:29:21.701164
373601,402994,407349,479883,15680,0,11:29:21.752080
363210,394944,376516,440770,15690,0,11:29:21.782250
354948,372934,343696,348594,15700,0,11:29:21.821806
350547,339898,297862,236194,15710,0,11:29:21.862036
353486,337825,292247,219462,15720,0,11:29:21.911942
362172,339725,310800,229822,15730,0,11:29:21.942387
374030,377781,383860,373781,15740,0,11:29:21.992163
421215,399466,523799,524287,15750,0,11:29:22.032037
410371,404287,516223,524287,15760,0,11:29:22.061982
357805,373121,341251,354847,15770,0,11:29:22.102350
351561,336796,291390,225709,15780,0,11:29:22.151723
356427,338439,296274,224639,15790,0,11:29:22.182186
362661,340306,314602,239511,15800,0,11:29:22.222183
384013,394164,421032,428205,15810,0,11:29:22.262445
420575,409587,524287,524287,15820,0,11:29:22.311201
356236,344789,416204,454459,15830,0,11:29:22.342311
360267,351434,306862,251680,15840,0,11:29:22.391722
371870,361340,292561,229014,15850,0,11:29:22.422055
381062,361700,303214,237454,15860,0,11:29:22.462108
408591,416071,448159,440712,15870,0,11:29:22.501957
432336,423035,523750,524287,15880,0,11:29:22.542389
380593,394673,382574,397174,15890,0,11:29:22.582003
373698,354445,320382,257190,15900,0,11:29:22.623385
375041,351088,312430,238838,15910,0,11:29:22.663043
379475,354021,323573,249760,15920,0,11:29:22.702360
391946,400779,392194,389761,15930,0,11:29:22.742173
387667,335862,485955,422278,15940,0,11:29:22.792300
333680,270373,438225,340554,15950,0,11:29:22.822385
411198,382109,522736,495856,15960,0,11:29:22.862002
366181,385886,344181,372290,15970,0,11:29:22.902303
359858,341433,287611,229143,15980,0,11:29:22.942021
364101,344407,297529,238227,15990,0,11:29:22.982027
393124,400325,412248,430182,16000,0,11:29:23.022323
319533,260223,406866,319048,16010,0,11:29:23.062359
312837,251928,398833,307418,16020,0,11:29:23.112258
415307,380475,522830,491969,16030,0,11:29:23.141418
415847,419821,506865,524287,16040,0,11:29:23.182208
389914,423255,402610,500629,16050,0,11:29:23.222373
411537,428820,463232,514926,16060,0,11:29:23.262296
326476,271854,391276,322004,16070,0,11:29:23.302493
138761,108555,166522,123476,16080,0,11:29:23.342234
176030,137212,210408,157069,16090,0,11:29:23.382212
296619,244388,361656,287212,16100,0,11:29:23.422398
390711,406306,450075,484696,16110,0,11:29:23.462184
356691,402383,306846,379642,16120,0,11:29:23.501585
362538,414681,323572,418533,16130,0,11:29:23.552115
407177,403678,480684,487236,16140,0,11:29:23.582215
250997,206704,296773,232971,16150,0,11:29:23.622483
234411,191718,278612,217326,16160,0,11:29:23.671548
365817,323754,456135,397269,16170,0,11:29:23.701964
381804,416196,385127,450004,16180,0,11:29:23.742458
361440,381247,309310,319155,16190,0,11:29:23.781952
366847,401211,332908,385114,16200,0,11:29:23.821319
395117,382159,467448,462521,16210,0,11:29:23.872135
222580,179332,261469,201122,16220,0,11:29:23.902505
266547,217482,320416,250896,16230,0,11:29:23.942257
397926,371818,498583,461531,16240,0,11:29:23.981790
354728,383877,307153,355355,16250,0,11:29:24.032064
349779,348016,273003,236069,16260,0,11:29:24.062415
356024,377606,299540,309525,16270,0,11:29:24.102087
400798,400185,459608,478630,16280,0,11:29:24.142375
295828,238391,357768,278659,16290,0,11:29:24.182104
375871,322043,474501,401030,16300,0,11:29:24.221345
422796,389767,524287,503837,16310,0,11:29:24.262247
416902,418810,501554,521160,16320,0,11:29:24.302198
369859,393364,332876,343362,16330,0,11:29:24.341831
368277,374731,323047,279294,16340,0,11:29:24.382350
371724,385740,336430,308506,16350,0,11:29:24.422299
389453,424422,385427,440911,16360,0,11:29:24.462333
423310,452671,470548,524287,16370,0,11:29:24.503092
443946,447931,516852,524287,16380,0,11:29:24.542455
447013,416724,524287,524287,16390,0,11:29:24.581993
439810,426710,520642,521802,16400,0,11:29:24.622314
400618,424756,441326,445868,16410,0,11:29:24.661200
437880,416154,523409,512143,16420,0,11:29:24.712195
432092,379914,524287,475913,16430,0,11:29:24.742063
447312,402441,524287,511871,16440,0,11:29:24.782147
428535,374362,524287,468529,16450,0,11:29:24.822071
439668,402696,524287,504079,16460,0,11:29:24.867341
418261,436109,499099,503430,16470,0,11:29:24.901947
445445,415194,524287,512585,16480,0,11:29:24.942012
430254,379546,524287,474587,16490,0,11:29:24.981699
444992,404834,524287,515513,16500,0,11:29:25.022276
423831,372930,524287,466800,16510,0,11:29:25.062382
428097,413794,503523,497902,16520,0,11:29:25.102199
421928,434718,485161,494900,16530,0,11:29:25.142160
443113,404680,524287,509773,16540,0,11:29:25.182284
450719,434829,524287,524287,16550,0,11:29:25.221875
447385,423008,524287,518868,16560,0,11:29:25.262122
388119,332193,476358,402679,16570,0,11:29:25.301513
324523,263626,390247,309560,16580,0,11:29:25.342267
396942,341146,495221,422267,16590,0,11:29:25.382198
426275,423049,491685,496843,16600,0,11:29:25.422130
387338,395263,372500,322015,16610,0,11:29:25.462188
400775,414913,404973,392047,16620,0,11:29:25.501948
375841,342274,447312,406981,16630,0,11:29:25.543001
218271,180100,253866,201377,16640,0,11:29:25.581865
240655,199809,281966,225065,16650,0,11:29:25.622116
374387,363166,439635,421692,16660,0,11:29:25.662254
372951,374531,327942,288637,16670,0,11:29:25.712140
376407,390778,346726,333500,16680,0,11:29:25.742110
398653,378332,472111,442846,16690,0,11:29:25.782187
289341,259173,334296,283943,16700,0,11:29:25.822287
277985,249854,320922,272711,16710,0,11:29:25.862464
252709,226532,291361,246090,16720,0,11:29:25.902192
299030,263718,362781,307695,16730,0,11:29:25.942157
384896,368885,421858,394314,16740,0,11:29:25.991325
374410,349620,328160,238840,16750,0,11:29:26.022430
373724,383297,357040,330083,16760,0,11:29:26.062156
409486,400840,523214,510733,16770,0,11:29:26.101817
392021,369928,507350,468902,16780,0,11:29:26.142046
376190,352454,484076,441926,16790,0,11:29:26.192103
338090,313818,429903,389472,16800,0,11:29:26.222041
369140,364610,426741,427224,16810,0,11:29:26.262132
366471,343751,327786,239617,16820,0,11:29:26.302230
358153,353595,317170,254709,16830,0,11:29:26.342437
398575,426961,479497,496121,16840,0,11:29:26.381995
356516,337114,453867,416828,16850,0,11:29:26.422025
287856,264751,352404,307299,16860,0,11:29:26.463229
271881,250990,335607,296143,16870,0,11:29:26.502440
338669,343449,435834,441691,16880,0,11:29:26.542406
343175,340793,280342,251622,16890,0,11:29:26.582341
348548,350246,277832,230126,16900,0,11:29:26.622124
376245,413462,391457,421751,16910,0,11:29:26.662086
353539,328295,441417,396196,16920,0,11:29:26.701627
281350,256991,337504,292408,16930,0,11:29:26.742221
298424,273242,365587,318967,16940,0,11:29:26.782528
315078,296917,401924,368822,16950,0,11:29:26.822421
349438,357042,342751,364915,16960,0,11:29:26.868394
349723,351610,263413,228483,16970,0,11:29:26.902096
357432,363209,277687,239991,16980,0,11:29:26.942210
401299,441265,441963,462305,16990,0,11:29:26.982206
377433,348680,480419,434288,17000,0,11:29:27.022146
360206,327129,457202,399649,17010,0,11:29:27.062110
341371,317086,436103,396737,17020,0,11:29:27.102035
363920,372170,402217,417907,17030,0,11:29:27.151090
361512,348876,294204,230895,17040,0,11:29:27.182118
364620,354612,297726,233840,17050,0,11:29:27.222183
393426,420928,392502,395083,17060,0,11:29:27.262109
342942,318631,416332,371056,17070,0,11:29:27.302125
297002,276771,351970,309904,17080,0,11:29:27.341980
286794,268245,343577,304695,17090,0,11:29:27.391343
332974,320986,426414,404034,17100,0,11:29:27.421822
380280,385524,444197,450000,17110,0,11:29:27.471478
366726,351288,317549,242092,17120,0,11:29:27.502098
365653,357876,306497,239358,17130,0,11:29:27.542222
389068,397070,435981,433315,17140,0,11:29:27.581905
235836,224257,264346,239574,17150,0,11:29:27.622351
226796,220091,252244,232449,17160,0,11:29:27.662167
214844,206656,241287,219444,17170,0,11:29:27.702418
242544,225158,285192,255880,17180,0,11:29:27.742231
370635,366051,420346,408326,17190,0,11:29:27.781619
360956,349354,319379,238808,17200,0,11:29:27.823053
350418,356081,297148,240333,17210,0,11:29:27.862349
397168,421706,449199,463069,17220,0,11:29:27.902406
332042,313738,397184,357572,17230,0,11:29:27.942219
313507,299386,374168,338320,17240,0,11:29:27.982421
281202,268664,334477,304280,17250,0,11:29:28.022152
290268,284198,358736,342052,17260,0,11:29:28.062191
347953,367877,407105,413028,17270,0,11:29:28.102456
346330,353452,318315,260209,17280,0,11:29:28.142329
355879,394639,346819,346934,17290,0,11:29:28.181763
372747,358965,455615,426546,17300,0,11:29:28.222198
297015,284823,349204,318231,17310,0,11:29:28.262225
235673,230120,271485,250458,17320,0,11:29:28.302151
208944,203778,243839,225399,17330,0,11:29:28.342278
292781,293766,365012,354381,17340,0,11:29:28.382364
327784,391140,359926,446411,17350,0,11:29:28.422001
311349,386901,278458,366407,17360,0,11:29:28.461208
366623,447714,367508,457466,17370,0,11:29:28.502533
328728,372421,316254,338202,17380,0,11:29:28.542228
330819,340489,412304,415312,17390,0,11:29:28.581285
356072,377880,465345,471183,17400,0,11:29:28.622267
358323,409584,427031,431077,17410,0,11:29:28.662305
361667,418256,429291,446110,17420,0,11:29:28.701583
391953,441620,517675,524287,17430,0,11:29:28.742233
382597,410193,507312,522870,17440,0,11:29:28.781980
387036,426867,490160,467333,17450,0,11:29:28.822471
349507,355027,361507,257035,17460,0,11:29:28.862225
330552,337688,309235,233027,17470,0,11:29:28.902205
342879,339832,271591,240111,17480,0,11:29:28.942235
358314,347757,282709,244947,17490,0,11:29:29.001219
366158,348131,296676,245727,17500,0,11:29:29.021641
370781,350092,304624,246590,17510,0,11:29:29.062315
372769,354357,304328,247354,17520,0,11:29:29.102151
384491,355978,334958,245597,17530,0,11:29:29.142466
398658,356932,381548,246256,17540,0,11:29:29.181975
402836,358386,404908,248312,17550,0,11:29:29.222276
398917,364322,398678,255493,17560,0,11:29:29.272205
398089,368805,391692,261392,17570,0,11:29:29.302124
401282,371998,389444,263436,17580,0,11:29:29.342221
398047,373120,369399,263151,17590,0,11:29:29.382312
393134,373510,348647,263241,17600,0,11:29:29.422237
399342,371964,367057,263119,17610,0,11:29:29.462261
404523,368282,387923,261716,17620,0,11:29:29.502147
415853,373594,438556,268767,17630,0,11:29:29.541655
417461,373514,440747,266028,17640,0,11:29:29.582157
407390,371609,407607,263087,17650,0,11:29:29.631950
386520,371733,363208,266319,17660,0,11:29:29.661625
389106,372077,366949,267223,17670,0,11:29:29.701909
407059,378150,393628,270924,17680,0,11:29:29.742099
459572,435228,491091,369571,17690,0,11:29:29.782202
507794,523986,524287,524287,17700,0,11:29:29.822392
455697,437898,496170,410185,17710,0,11:29:29.862199
398141,380282,407444,261315,17720,0,11:29:29.902730
384571,377495,375598,259770,17730,0,11:29:29.951627
394091,380734,387075,261865,17740,0,11:29:29.982169
419944,387372,416987,268747,17750,0,11:29:30.022241
435331,388526,435717,271487,17760,0,11:29:30.062234
455584,402504,517357,302018,17770,0,11:29:30.102244
428977,384745,473857,272801,17780,0,11:29:30.142485
400718,383073,416990,267623,17790,0,11:29:30.181784
365984,378251,358537,269832,17800,0,11:29:30.222302
362907,378810,351998,271982,17810,0,11:29:30.262251
374729,384900,364234,272662,17820,0,11:29:30.302459
384355,387294,374088,273198,17830,0,11:29:30.341855
399222,390579,402229,275184,17840,0,11:29:30.381373
405362,393398,414505,278604,17850,0,11:29:30.421537
386080,390657,387007,279279,17860,0,11:29:30.462234
366809,386630,360120,281900,17870,0,11:29:30.502238
368530,388674,363068,283646,17880,0,11:29:30.542536
377033,394210,368567,284867,17890,0,11:29:30.582072
376878,395672,363199,287003,17900,0,11:29:30.622489
388185,399138,383204,287399,17910,0,11:29:30.662197
399781,402695,402955,289544,17920,0,11:29:30.702233
389759,401675,389815,290447,17930,0,11:29:30.742242
377178,399693,372922,292145,17940,0,11:29:30.782501
376169,400770,371548,294089,17950,0,11:29:30.822022
386972,406725,381324,296304,17960,0,11:29:30.862170
387385,407282,368560,298695,17970,0,11:29:30.902228
393285,408019,380078,298116,17980,0,11:29:30.941498
406707,410946,404263,299251,17990,0,11:29:30.982081
395529,409261,389271,299414,18000,0,11:29:31.022010
379382,407548,367653,301272,18010,0,11:29:31.061585
371444,405693,354999,304026,18020,0,11:29:31.102522
377367,409038,365141,304835,18030,0,11:29:31.142239
381971,412261,367542,305614,18040,0,11:29:31.181676
379943,410765,360809,306197,18050,0,11:29:31.222222
388685,412357,373077,303605,18060,0,11:29:31.262560
396007,414053,382942,302514,18070,0,11:29:31.301533
387913,411736,371336,301961,18080,0,11:29:31.342222
374961,407970,353324,303151,18090,0,11:29:31.382416
373765,408231,351580,304640,18100,0,11:29:31.422223
388408,415005,372241,304820,18110,0,11:29:31.462202
398121,418194,375328,306216,18120,0,11:29:31.502208
407503,417863,386775,304428,18130,0,11:29:31.541256
420445,421572,413175,308466,18140,0,11:29:31.581695
409453,417594,399895,304826,18150,0,11:29:31.622414
388999,413410,372287,302724,18160,0,11:29:31.662330
380736,412057,361155,303678,18170,0,11:29:31.702419
383614,413480,366568,304156,18180,0,11:29:31.742034
395161,418272,374507,305696,18190,0,11:29:31.782186
403707,418815,375698,305628,18200,0,11:29:31.821565
416280,421564,400138,307936,18210,0,11:29:31.861978
427578,426981,433628,319405,18220,0,11:29:31.901591
410693,418914,412161,308198,18230,0,11:29:31.942096
382583,412390,371452,302966,18240,0,11:29:31.982094
375321,409967,361999,301535,18250,0,11:29:32.022086
389033,415153,380147,302238,18260,0,11:29:32.062179
409062,418271,385785,302098,18270,0,11:29:32.102189
414733,415304,394095,298613,18280,0,11:29:32.142059
425083,420903,426026,309304,18290,0,11:29:32.181984
419040,417420,425611,305388,18300,0,11:29:32.222274
393670,410653,390497,294990,18310,0,11:29:32.271613
383578,408331,377477,293695,18320,0,11:29:32.302952
386236,408868,382453,293822,18330,0,11:29:32.341956
405463,416344,398156,298979,18340,0,11:29:32.381542
428302,421829,415906,308632,18350,0,11:29:32.422375
488836,493000,512577,461098,18360,0,11:29:32.462116
494634,514257,524287,524287,18370,0,11:29:32.502356
472109,480767,524287,524287,18380,0,11:29:32.541559
505390,520922,524287,524287,18390,0,11:29:32.582244
494189,524287,524287,524287,18400,0,11:29:32.622081
518861,523780,524287,524287,18410,0,11:29:32.662101
505637,518423,524287,524287,18420,0,11:29:32.702339
498504,510665,524287,524287,18430,0,11:29:32.742185
471711,471992,524287,524287,18440,0,11:29:32.782147
483760,492137,524287,524287,18450,0,11:29:32.812385
498002,519463,524287,524287,18460,0,11:29:32.862122
470818,496800,524287,517449,18470,0,11:29:32.902052
501157,519217,524287,524287,18480,0,11:29:32.932227
463438,449574,524287,522435,18490,0,11:29:32.982025
440360,421372,522914,506512,18500,0,11:29:33.011695
433573,414156,520451,498594,18510,0,11:29:33.052190
457889,450787,524287,521488,18520,0,11:29:33.092172
457156,460072,514230,444316,18530,0,11:29:33.131492
387221,395742,437423,275983,18540,0,11:29:33.173274
404840,406562,482019,304937,18550,0,11:29:33.211508
453535,409138,524287,318604,18560,0,11:29:33.262403
490290,477984,524287,425386,18570,0,11:29:33.292252
480513,463241,524287,495032,18580,0,11:29:33.332486
441511,402051,524287,462795,18590,0,11:29:33.372191
399354,382625,515522,312878,18600,0,11:29:33.422217
393518,383626,442633,266270,18610,0,11:29:33.452393
410483,391102,471773,281760,18620,0,11:29:33.492016
438477,378853,489798,264418,18630,0,11:29:33.531896
453008,378744,517118,270881,18640,0,11:29:33.571465
460474,395343,524287,303881,18650,0,11:29:33.612280
423192,368946,476725,252815,18660,0,11:29:33.651945
382509,363233,409021,241524,18670,0,11:29:33.692036
372547,363835,394837,243944,18680,0,11:29:33.732209
385856,371107,413618,252777,18690,0,11:29:33.772398
408459,376074,429993,255850,18700,0,11:29:33.812393
424824,372090,446746,252623,18710,0,11:29:33.852079
453090,400043,516653,319445,18720,0,11:29:33.892274
454127,405477,521296,331934,18730,0,11:29:33.932165
401737,364508,444216,248700,18740,0,11:29:33.972185
376520,362289,403388,245730,18750,0,11:29:34.022069
370726,363600,397700,248621,18760,0,11:29:34.052110
383753,371233,412244,256056,18770,0,11:29:34.101408
403791,371406,420108,250924,18780,0,11:29:34.132153
416769,373377,449138,258775,18790,0,11:29:34.171853
453702,404294,523432,327806,18800,0,11:29:34.212334
435851,387499,512325,295975,18810,0,11:29:34.251446
399616,368145,450310,257573,18820,0,11:29:34.291604
379519,365189,411833,252084,18830,0,11:29:34.332133
371336,365850,399932,252891,18840,0,11:29:34.372278
396151,372601,421603,257524,18850,0,11:29:34.418975
436860,382314,492639,287027,18860,0,11:29:34.452318
466903,437582,524287,418432,18870,0,11:29:34.492147
439096,394796,509453,320709,18880,0,11:29:34.532067
385955,364243,424836,250321,18890,0,11:29:34.572359
362821,361764,389827,248114,18900,0,11:29:34.612316
367060,366463,398014,254703,18910,0,11:29:34.652043
400951,377388,436097,267242,18920,0,11:29:34.702248
426949,378319,480163,275042,18930,0,11:29:34.732427
466807,450657,524287,444618,18940,0,11:29:34.772366
470633,472984,524287,491613,18950,0,11:29:34.812196
410697,374281,480748,276557,18960,0,11:29:34.852168
370813,362280,404149,249908,18970,0,11:29:34.891431
360260,362276,390307,251700,18980,0,11:29:34.932425
388948,373685,426358,265824,18990,0,11:29:34.972207
431912,374590,489682,275987,19000,0,11:29:35.012207
461120,438614,524287,417919,19010,0,11:29:35.052861
467393,483773,524287,517251,19020,0,11:29:35.092469
409604,377215,480607,296521,19030,0,11:29:35.132317
366363,361955,401934,253084,19040,0,11:29:35.172079
363847,363016,397678,255716,19050,0,11:29:35.212235
378121,370316,417159,265539,19060,0,11:29:35.252653
414898,368130,441471,258476,19070,0,11:29:35.292147
425626,364462,461426,256200,19080,0,11:29:35.332271
438630,379982,519213,300055,19090,0,11:29:35.381613
441649,392044,524287,324741,19100,0,11:29:35.412213
416425,371747,502401,282058,19110,0,11:29:35.452272
391459,362091,440709,259296,19120,0,11:29:35.492094
380875,360978,417620,256382,19130,0,11:29:35.542201
386779,363687,414002,255378,19140,0,11:29:35.572440
415732,365240,433521,253014,19150,0,11:29:35.611818
445412,404646,510438,351450,19160,0,11:29:35.652176
474200,492767,524287,524287,19170,0,11:29:35.691339
457372,447855,524287,454806,19180,0,11:29:35.732132
402774,375267,483017,284722,19190,0,11:29:35.772428
382074,371149,439227,270996,19200,0,11:29:35.822349
384735,373765,445143,276758,19210,0,11:29:35.852245
403175,379719,470642,286537,19220,0,11:29:35.902146
429783,366408,485657,266917,19230,0,11:29:35.932484
451178,399356,522298,346963,19240,0,11:29:35.982143
462073,447211,524287,460864,19250,0,11:29:36.012396
461039,455237,524287,489206,19260,0,11:29:36.052200
424333,391690,516702,330686,19270,0,11:29:36.092544
388436,371557,451589,273567,19280,0,11:29:36.131997
386117,372475,440106,272599,19290,0,11:29:36.172172
404093,376969,457690,275988,19300,0,11:29:36.212230
439527,375727,503003,286863,19310,0,11:29:36.252344
471197,473987,524287,503104,19320,0,11:29:36.292067
470890,494424,524287,524287,19330,0,11:29:36.331893
459415,451387,524287,472980,19340,0,11:29:36.372324
421244,383583,513174,311678,19350,0,11:29:36.411834
386077,372619,443881,272373,19360,0,11:29:36.452327
385320,375678,436792,274683,19370,0,11:29:36.502040
414379,374401,455346,265400,19380,0,11:29:36.531859
449370,397476,514247,335307,19390,0,11:29:36.573034
471235,475317,524287,512386,19400,0,11:29:36.613199
469136,480818,524287,515071,19410,0,11:29:36.651839
394387,382513,465643,295582,19420,0,11:29:36.691375
365050,374286,409815,268393,19430,0,11:29:36.731933
376061,379877,420371,272746,19440,0,11:29:36.772151
418417,379178,460226,266448,19450,0,11:29:36.812007
448669,393172,520426,321702,19460,0,11:29:36.852184
465318,452975,524287,474253,19470,0,11:29:36.892432
433948,400848,511216,345593,19480,0,11:29:36.932326
380466,370796,431403,265940,19490,0,11:29:36.972375
376853,373405,423064,270006,19500,0,11:29:37.012142
393149,379561,441955,277365,19510,0,11:29:37.051802
429213,376752,474862,272644,19520,0,11:29:37.092046
450477,389610,523854,324418,19530,0,11:29:37.132155
459802,436375,524287,438602,19540,0,11:29:37.172117
451668,427399,524287,418740,19550,0,11:29:37.212504
405191,382062,485256,291004,19560,0,11:29:37.252304
377859,384069,440946,284398,19570,0,11:29:37.292197
383129,387751,447731,288482,19580,0,11:29:37.331485
420232,384071,483113,279085,19590,0,11:29:37.372045
462427,418555,524287,383779,19600,0,11:29:37.412386
462082,431023,524287,413347,19610,0,11:29:37.452123
443963,405010,524287,352927,19620,0,11:29:37.502112
393228,381251,476451,289191,19630,0,11:29:37.532509
378019,384002,448880,289954,19640,0,11:29:37.572116
400235,389096,474160,293156,19650,0,11:29:37.612096
437075,386272,514073,300522,19660,0,11:29:37.652143
453323,401749,524287,343491,19670,0,11:29:37.692225
441183,391510,524287,320745,19680,0,11:29:37.732018
415005,378204,505674,289044,19690,0,11:29:37.772142
393249,380990,474673,289713,19700,0,11:29:37.812178
392547,385492,479245,299605,19710,0,11:29:37.862383
417162,389080,513597,309107,19720,0,11:29:37.892326
435592,378543,520761,297133,19730,0,11:29:37.931932
418057,365725,480005,262147,19740,0,11:29:37.971980
399549,366967,448179,258583,19750,0,11:29:38.012335
395408,372229,450590,268144,19760,0,11:29:38.051890
405699,382449,492154,297682,19770,0,11:29:38.092108
433265,408408,524287,363129,19780,0,11:29:38.133418
427498,400879,524287,338073,19790,0,11:29:38.171939
416549,389828,521235,311417,19800,0,11:29:38.211901
403901,379280,478145,278079,19810,0,11:29:38.251923
391055,372725,431760,254855,19820,0,11:29:38.292196
395526,374494,435175,255090,19830,0,11:29:38.331706
400277,377381,457101,266425,19840,0,11:29:38.371805
388761,381264,459925,283391,19850,0,11:29:38.421981
385611,387419,466798,300238,19860,0,11:29:38.485955
400619,389975,481229,299289,19870,0,11:29:38.491940
409312,379993,462372,268604,19880,0,11:29:38.532337
413883,375056,452970,254491,19890,0,11:29:38.572454
414912,374994,465591,257846,19900,0,11:29:38.612067
402544,375564,471791,268373,19910,0,11:29:38.652005
380592,377950,442795,276521,19920,0,11:29:38.691868
385624,385107,453422,289792,19930,0,11:29:38.732049
407432,386393,473118,286486,19940,0,11:29:38.772288
417624,376619,460111,260705,19950,0,11:29:38.811623
420460,373635,461406,254634,19960,0,11:29:38.851998
412653,372374,467452,257481,19970,0,11:29:38.892374
408546,372310,471731,261604,19980,0,11:29:38.932226
402936,371082,468929,263571,19990,0,11:29:38.972153
398635,370498,462756,264880,20000,0,11:29:39.012484
401404,372323,472018,270444,20010,0,11:29:39.052145
411582,376714,494796,279985,20020,0,11:29:39.092066
431840,390932,524218,311463,20030,0,11:29:39.151720
423923,382832,515821,292514,20040,0,11:29:39.182391
394181,368077,454455,260011,20050,0,11:29:39.212268
376327,366615,422750,256828,20060,0,11:29:39.251995
377922,371364,424745,263209,20070,0,11:29:39.311990
405364,383187,469265,282271,20080,0,11:29:39.332100
447291,397429,524013,326854,20090,0,11:29:39.382090
437361,389706,524283,313374,20100,0,11:29:39.413132
406485,375538,492089,282558,20110,0,11:29:39.473018
374085,376757,438611,279951,20120,0,11:29:39.492256
373829,382544,441158,289104,20130,0,11:29:39.531963
401579,389217,479041,292298,20140,0,11:29:39.571993
416592,387524,500627,287037,20150,0,11:29:39.612238
448385,432747,524287,420827,20160,0,11:29:39.652315
449582,442575,524287,451884,20170,0,11:29:39.701988
404436,390834,510209,323118,20180,0,11:29:39.752954
391049,385335,488737,305872,20190,0,11:29:39.772428
396478,385897,491156,301931,20200,0,11:29:39.812165
401700,383680,474963,280358,20210,0,11:29:39.851290
428535,388046,509034,294925,20220,0,11:29:39.891905
447584,407400,524287,344163,20230,0,11:29:39.932507
408751,392078,503569,299864,20240,0,11:29:39.972281
372092,407794,466930,323787,20250,0,11:29:40.012074
367631,410211,467070,333644,20260,0,11:29:40.061998
432751,434033,523402,392187,20270,0,11:29:40.102035
464524,440246,524287,406931,20280,0,11:29:40.132777
424610,383716,500724,278636,20290,0,11:29:40.172023
399215,377102,461092,267259,20300,0,11:29:40.212167
391839,378817,451332,270477,20310,0,11:29:40.262075
377095,382375,438439,279487,20320,0,11:29:40.291939
363004,386502,424646,289744,20330,0,11:29:40.332015
366925,390957,438250,303258,20340,0,11:29:40.371957
380005,396817,467326,319012,20350,0,11:29:40.412054
445095,445270,523363,436803,20360,0,11:29:40.462373
461626,445649,523983,439292,20370,0,11:29:40.492070
404768,349397,433117,234270,20380,0,11:29:40.532339
374777,353798,387538,236674,20390,0,11:29:40.572156
373937,359046,397018,246042,20400,0,11:29:40.612504
359685,371217,401267,265182,20410,0,11:29:40.652183
353566,379430,402193,279607,20420,0,11:29:40.692212
373130,390168,438874,301923,20430,0,11:29:40.733432
410568,398465,510596,326851,20440,0,11:29:40.771467
423429,388324,514189,295688,20450,0,11:29:40.812395
426493,381453,506094,277310,20460,0,11:29:40.852004
402602,365671,440535,247303,20470,0,11:29:40.892308
380552,365217,408492,247715,20480,0,11:29:40.932203
370871,374594,415634,266715,20490,0,11:29:40.971872
353475,384447,405892,285275,20500,0,11:29:41.011856
352028,387342,405453,290607,20510,0,11:29:41.052329
383291,397572,452596,312658,20520,0,11:29:41.091849
408742,395214,494603,312556,20530,0,11:29:41.131544
419642,388593,515128,302391,20540,0,11:29:41.172440
420175,374893,489860,267456,20550,0,11:29:41.212244
395113,364819,430254,243979,20560,0,11:29:41.252331
377882,368455,413720,252575,20570,0,11:29:41.292298
367501,380400,421578,277101,20580,0,11:29:41.331944
350043,386812,404729,289890,20590,0,11:29:41.372272
352164,391347,409513,297928,20600,0,11:29:41.412270
398197,406176,491628,337162,20610,0,11:29:41.452490
450587,424137,524287,380936,20620,0,11:29:41.492067
444452,388632,516266,303861,20630,0,11:29:41.532515
402128,353146,422871,236378,20640,0,11:29:41.572191
378967,356629,394752,243110,20650,0,11:29:41.622141
374245,366099,410586,259582,20660,0,11:29:41.652122
360029,377030,407545,276191,20670,0,11:29:41.692061
360055,383496,413360,286881,20680,0,11:29:41.732151
391333,397366,477785,327291,20690,0,11:29:41.773056
424946,395431,523773,321087,20700,0,11:29:41.812140
436185,384068,521016,294815,20710,0,11:29:41.852510
416731,358915,461429,244639,20720,0,11:29:41.892315
385170,348225,383890,230259,20730,0,11:29:41.942318
381129,351086,390279,239013,20740,0,11:29:41.972441
379107,366082,425286,265777,20750,0,11:29:42.012144
362709,378231,414786,279197,20760,0,11:29:42.061959
366565,383065,418942,285928,20770,0,11:29:42.092243
412698,381520,485723,294899,20780,0,11:29:42.132158
423020,365026,479626,260526,20790,0,11:29:42.172477
399575,353976,416020,240861,20800,0,11:29:42.212087
385322,359803,401154,247606,20810,0,11:29:42.252550
372592,367817,404273,259357,20820,0,11:29:42.292416
355610,377874,397936,275204,20830,0,11:29:42.331697
365765,385859,420780,290372,20840,0,11:29:42.372086
393843,395824,465550,314971,20850,0,11:29:42.411482
428242,374698,489653,276216,20860,0,11:29:42.452115
431989,380946,503689,280227,20870,0,11:29:42.492500
442460,422526,524287,370470,20880,0,11:29:42.532136
371824,391065,444682,294434,20890,0,11:29:42.572001
339071,391889,396255,301489,20900,0,11:29:42.611830
382148,412403,485179,341122,20910,0,11:29:42.652466
407067,406303,511227,322189,20920,0,11:29:42.692123
417837,387628,485305,274249,20930,0,11:29:42.732193
429658,393403,521060,298092,20940,0,11:29:42.771496
431279,400453,524218,312755,20950,0,11:29:42.812378
391666,383788,466770,279080,20960,0,11:29:42.851940
371370,384225,431883,280595,20970,0,11:29:42.892036
388730,394301,470511,305914,20980,0,11:29:42.932135
410579,396799,505540,308976,20990,0,11:29:42.971855
424252,384238,502305,282412,21000,0,11:29:43.012203
431745,397928,523680,326236,21010,0,11:29:43.052356
455120,453772,524287,499115,21020,0,11:29:43.092125
436014,429683,524287,447954,21030,0,11:29:43.132315
407844,397533,524287,372741,21040,0,11:29:43.171850
444228,433043,524287,490777,21050,0,11:29:43.211745
455462,452237,524287,520612,21060,0,11:29:43.251919
459788,457881,524287,512646,21070,0,11:29:43.291845
460466,466076,524287,524287,21080,0,11:29:43.332450
456179,459019,524287,524287,21090,0,11:29:43.372320
444418,438158,524287,476541,21100,0,11:29:43.411712
406098,386143,512652,323079,21110,0,11:29:43.461549
416039,392601,523434,346373,21120,0,11:29:43.492013
432119,414172,524287,404104,21130,0,11:29:43.531031
439587,417401,524287,396355,21140,0,11:29:43.571488
452858,450908,524287,505360,21150,0,11:29:43.611666
449663,448917,524287,524287,21160,0,11:29:43.651867
444154,436697,524287,522760,21170,0,11:29:43.691848
420785,400161,524287,395390,21180,0,11:29:43.731336
414674,388918,524287,364255,21190,0,11:29:43.772290
426515,404726,524287,410064,21200,0,11:29:43.812475
428296,409034,524287,410442,21210,0,11:29:43.852373
424573,387436,516518,317825,21220,0,11:29:43.892295
430946,389221,521857,314917,21230,0,11:29:43.931854
435698,407895,524287,363745,21240,0,11:29:43.982038
416827,387664,508755,304941,21250,0,11:29:44.013760
375655,375868,421628,261452,21260,0,11:29:44.052152
355654,373550,386974,256614,21270,0,11:29:44.091449
399894,390291,407629,267949,21280,0,11:29:44.131989
456856,438357,439884,272906,21290,0,11:29:44.172242
472981,485635,517880,399337,21300,0,11:29:44.212454
456501,453167,524287,524287,21310,0,11:29:44.252235
413978,401536,513669,326318,21320,0,11:29:44.292251
385611,389752,460287,292752,21330,0,11:29:44.341107
395464,389982,468366,289979,21340,0,11:29:44.372175
412465,385877,479642,277996,21350,0,11:29:44.412557
437731,391991,513022,307873,21360,0,11:29:44.452410
444620,407598,524287,340877,21370,0,11:29:44.492095
416622,384909,511003,289453,21380,0,11:29:44.542044
383309,381690,451434,281261,21390,0,11:29:44.571492
373417,386412,436636,287964,21400,0,11:29:44.612424
387602,389041,452593,289204,21410,0,11:29:44.652011
397045,382876,438164,265888,21420,0,11:29:44.692130
421635,380995,475354,268359,21430,0,11:29:44.732139
414299,370260,469584,255413,21440,0,11:29:44.772323
387508,368684,429989,253965,21450,0,11:29:44.812152
364219,370755,399318,258648,21460,0,11:29:44.851937
367222,375020,402423,263838,21470,0,11:29:44.891497
379097,380223,410656,265616,21480,0,11:29:44.931105
403442,383156,432833,264968,21490,0,11:29:44.972010
423417,383498,483496,273886,21500,0,11:29:45.012051
401948,377383,457516,265654,21510,0,11:29:45.052360
381631,379682,433781,273504,21520,0,11:29:45.092312
377958,383412,430320,280679,21530,0,11:29:45.132060
396257,390623,459620,294560,21540,0,11:29:45.172326
419660,388133,476186,283623,21550,0,11:29:45.212163
446341,387249,514702,293816,21560,0,11:29:45.252140
423462,369748,480773,256629,21570,0,11:29:45.292385
385673,374315,435959,264571,21580,0,11:29:45.331965
371479,380966,419939,275346,21590,0,11:29:45.372835
388225,387650,449887,289968,21600,0,11:29:45.412235
395548,382679,448125,276425,21610,0,11:29:45.452065
389456,376001,409591,254387,21620,0,11:29:45.491952
418500,371702,438104,254516,21630,0,11:29:45.531916
422940,376009,493264,273252,21640,0,11:29:45.571851
404492,369991,480482,273083,21650,0,11:29:45.612554
397444,370659,464210,274045,21660,0,11:29:45.652061
393273,372840,447894,274248,21670,0,11:29:45.692012
386171,370729,410868,258922,21680,0,11:29:45.732497
377844,370036,383261,250954,21690,0,11:29:45.772373
407089,384086,440482,276921,21700,0,11:29:45.812134
460113,473750,524287,478004,21710,0,11:29:45.852832
452880,469980,524287,524287,21720,0,11:29:45.891822
463677,479251,524287,520039,21730,0,11:29:45.931510
420957,387472,491945,308902,21740,0,11:29:45.972277
382845,363848,401882,246673,21750,0,11:29:46.012048
380793,365829,397693,250603,21760,0,11:29:46.052058
393606,372475,424421,265194,21770,0,11:29:46.091980
433527,408892,500195,344858,21780,0,11:29:46.132087
465730,486114,524287,524287,21790,0,11:29:46.172142
462106,463323,524287,487423,21800,0,11:29:46.212241
407376,364343,451716,249905,21810,0,11:29:46.252046
371039,365618,380321,243989,21820,0,11:29:46.292088
364462,369466,374515,250127,21830,0,11:29:46.333070
376230,374218,394052,257280,21840,0,11:29:46.372240
427668,419388,480667,352110,21850,0,11:29:46.411429
445218,451296,524287,524287,21860,0,11:29:46.451978
460042,472972,524287,524287,21870,0,11:29:46.492131
432871,395271,497541,332385,21880,0,11:29:46.531747
381116,362359,385880,238579,21890,0,11:29:46.572133
366255,362508,360141,240392,21900,0,11:29:46.612057
376423,366723,376575,245306,21910,0,11:29:46.652121
413158,392234,460750,300166,21920,0,11:29:46.691550
467778,486138,524287,513536,21930,0,11:29:46.732152
463254,464850,524287,478412,21940,0,11:29:46.771388
411614,372719,456724,262080,21950,0,11:29:46.813007
380454,364579,385920,243295,21960,0,11:29:46.852167
387123,369457,403699,254050,21970,0,11:29:46.892391
420486,410724,485610,350441,21980,0,11:29:46.931662
397135,390297,464026,450588,21990,0,11:29:46.972379
358385,331270,423018,396548,22000,0,11:29:47.011274
444568,453181,520773,520127,22010,0,11:29:47.052227
426486,402713,478860,351106,22020,0,11:29:47.092286
378881,360885,371536,230616,22030,0,11:29:47.142068
382583,363931,378468,235512,22040,0,11:29:47.183074
418634,404727,471230,326091,22050,0,11:29:47.212065
438990,447281,509469,506335,22060,0,11:29:47.252621
412334,403649,495637,488612,22070,0,11:29:47.292136
460374,478615,524287,524287,22080,0,11:29:47.351332
428647,403482,478038,357933,22090,0,11:29:47.372380
374420,357714,362064,230537,22100,0,11:29:47.412036
373059,360350,362147,236265,22110,0,11:29:47.452237
389937,368736,401923,250940,22120,0,11:29:47.492428
442427,438361,502450,386123,22130,0,11:29:47.533049
472503,494087,524287,524287,22140,0,11:29:47.572421
482468,503974,524287,524287,22150,0,11:29:47.612000
437178,421591,507444,356852,22160,0,11:29:47.662173
357162,385171,388979,256703,22170,0,11:29:47.692724
343169,381755,363579,256702,22180,0,11:29:47.731653
360286,392350,392963,267719,22190,0,11:29:47.771777
405014,412863,476504,318225,22200,0,11:29:47.812982
447436,454929,510175,495631,22210,0,11:29:47.851593
354532,321119,410314,375039,22220,0,11:29:47.891284
391934,368610,465198,439420,22230,0,11:29:47.932122
430259,437652,491304,458751,22240,0,11:29:47.972480
350912,388311,379747,261720,22250,0,11:29:48.011189
366418,398551,410864,278824,22260,0,11:29:48.052242
431886,436256,512825,388398,22270,0,11:29:48.092058
448088,459178,514466,512098,22280,0,11:29:48.131860
402183,388590,478830,464710,22290,0,11:29:48.172027
455585,469423,523725,523560,22300,0,11:29:48.213308
439341,431839,500452,406706,22310,0,11:29:48.252175
358525,376181,374220,246541,22320,0,11:29:48.292154
359914,381436,381064,255102,22330,0,11:29:48.331978
410733,417628,480291,345238,22340,0,11:29:48.372280
436487,445889,505700,503098,22350,0,11:29:48.411915
407532,398295,485676,476058,22360,0,11:29:48.451717
465036,476065,524287,514683,22370,0,11:29:48.492171
404812,379850,453830,276569,22380,0,11:29:48.531166
355912,374286,367117,243965,22390,0,11:29:48.581272
356090,379682,372893,252607,22400,0,11:29:48.612260
390749,399674,445806,294972,22410,0,11:29:48.651967
458524,474567,524287,484362,22420,0,11:29:48.692002
453570,472441,524287,524287,22430,0,11:29:48.732100
468071,456645,524287,445041,22440,0,11:29:48.772096
408682,380610,459467,261963,22450,0,11:29:48.812270
362388,373550,368319,242184,22460,0,11:29:48.852218
363763,376603,371412,247088,22470,0,11:29:48.892335
389631,391236,421066,275534,22480,0,11:29:48.931880
441187,435037,511040,379682,22490,0,11:29:48.972020
447820,468607,524287,524287,22500,0,11:29:49.012141
456429,479080,524287,524287,22510,0,11:29:49.052114
426590,396268,469630,348789,22520,0,11:29:49.092971
368619,359808,349919,231482,22530,0,11:29:49.132777
361606,364076,342843,239474,22540,0,11:29:49.172175
379083,371619,376095,247316,22550,0,11:29:49.212398
438812,439272,482049,372065,22560,0,11:29:49.252161
445215,468117,524287,524287,22570,0,11:29:49.292259
458537,483302,524287,523324,22580,0,11:29:49.332064
419427,387233,471610,310419,22590,0,11:29:49.381949
356231,370603,363090,244030,22600,0,11:29:49.412262
349874,375691,358683,252197,22610,0,11:29:49.452175
390386,389862,415631,271844,22620,0,11:29:49.492307
462559,446185,515800,412424,22630,0,11:29:49.531854
478142,466403,524287,462668,22640,0,11:29:49.572240
412786,398358,473933,282533,22650,0,11:29:49.612992
361858,387022,394177,257873,22660,0,11:29:49.652247
351355,388120,381444,263706,22670,0,11:29:49.692352
359784,396606,397608,274407,22680,0,11:29:49.732050
387871,411691,439449,295621,22690,0,11:29:49.772099
449609,426489,514189,348468,22700,0,11:29:49.812145
482223,464590,524287,454438,22710,0,11:29:49.852320
467289,435153,524287,377672,22720,0,11:29:49.892293
420866,394563,488072,280158,22730,0,11:29:49.931639
379652,395373,426499,274991,22740,0,11:29:49.982298
358327,399249,402717,285626,22750,0,11:29:50.011217
372069,407208,426822,300876,22760,0,11:29:50.041883
445490,434871,513488,384771,22770,0,11:29:50.082073
476022,500540,524287,524287,22780,0,11:29:50.131819
460075,423289,523356,369269,22790,0,11:29:50.171738
416536,377136,466470,258450,22800,0,11:29:50.212036
370375,382654,400938,258876,22810,0,11:29:50.272145
354467,386821,386125,268281,22820,0,11:29:50.281991
381169,395845,416562,280030,22830,0,11:29:50.332013
427932,392940,463585,288297,22840,0,11:29:50.362153
429453,382065,475139,276228,22850,0,11:29:50.402036
424062,384353,492266,284415,22860,0,11:29:50.441814
416404,390242,502018,298267,22870,0,11:29:50.482131
381333,396020,443813,292348,22880,0,11:29:50.521831
378237,403376,445857,305814,22890,0,11:29:50.562104
419150,409223,501491,330257,22900,0,11:29:50.612257
454696,407093,524287,345863,22910,0,11:29:50.642013
459088,431053,524287,397603,22920,0,11:29:50.682092
451440,426500,524287,386593,22930,0,11:29:50.722441
429108,402804,522920,330924,22940,0,11:29:50.761898
382120,400329,460267,304706,22950,0,11:29:50.802419
381882,407050,462175,316897,22960,0,11:29:50.842222
435879,412395,519553,349690,22970,0,11:29:50.882344
454293,398276,524287,332478,22980,0,11:29:50.922284
441609,386012,522245,293621,22990,0,11:29:50.962086
428712,388144,521099,296663,23000,0,11:29:51.002110
395341,388045,466744,285248,23010,0,11:29:51.042094
356745,396698,414080,295496,23020,0,11:29:51.082032
384088,410229,464010,324576,23030,0,11:29:51.121903
445412,391777,522177,311308,23040,0,11:29:51.162064
447166,376776,519430,280345,23050,0,11:29:51.202295
445389,398883,524287,316638,23060,0,11:29:51.242162
448300,420239,524287,371960,23070,0,11:29:51.281927
440064,412084,524287,357145,23080,0,11:29:51.321455
423101,394487,524287,315126,23090,0,11:29:51.362371
422864,393691,524287,314234,23100,0,11:29:51.402162
435858,385333,523803,295449,23110,0,11:29:51.451762
436768,356305,497075,245406,23120,0,11:29:51.482096
433788,364542,498105,254279,23130,0,11:29:51.522117
435796,383036,522902,286953,23140,0,11:29:51.562330
419870,381959,507831,285755,23150,0,11:29:51.602088
391439,384256,456794,278140,23160,0,11:29:51.642221
394072,389447,464259,289092,23170,0,11:29:51.712067
424458,385527,500375,296553,23180,0,11:29:51.722767
424995,354003,465044,245423,23190,0,11:29:51.761917
425072,362787,488545,260655,23200,0,11:29:51.802375
431819,384110,523099,303714,23210,0,11:29:51.841529
421981,379352,516186,297113,23220,0,11:29:51.882161
404121,370774,466699,269515,23230,0,11:29:51.921838
401474,375355,462827,275811,23240,0,11:29:51.962730
417954,372745,476637,276135,23250,0,11:29:52.001718
417243,343441,444072,232962,23260,0,11:29:52.055890
416634,347855,455616,240445,23270,0,11:29:52.082819
418486,359578,483233,258773,23280,0,11:29:52.138909
411009,360497,469799,259948,23290,0,11:29:52.178802
391703,363035,425377,252483,23300,0,11:29:52.206728
387694,369247,424483,260047,23310,0,11:29:52.261940
416493,375293,479790,291837,23320,0,11:29:52.282427
430794,386869,512331,316912,23330,0,11:29:52.321664
436954,415336,524195,381490,23340,0,11:29:52.362922
444722,438061,524287,470121,23350,0,11:29:52.401197
409554,397587,495121,343154,23360,0,11:29:52.441914
375067,374617,422345,270012,23370,0,11:29:52.482247
385054,374416,434195,271802,23380,0,11:29:52.522008
404979,357393,447424,253007,23390,0,11:29:52.562627
416806,366726,476585,277500,23400,0,11:29:52.602536
427063,402339,524264,361767,23410,0,11:29:52.642293
411766,379338,497491,314230,23420,0,11:29:52.681632
385784,354112,411658,245280,23430,0,11:29:52.731844
374309,355853,385902,239334,23440,0,11:29:52.762082
385492,362018,410185,254438,23450,0,11:29:52.801896
427982,421912,499741,399846,23460,0,11:29:52.842377
446440,453654,524287,524287,23470,0,11:29:52.892203
425940,425758,524287,516444,23480,0,11:29:52.921906
406668,396140,520530,464785,23490,0,11:29:52.962057
389191,369689,479252,378544,23500,0,11:29:53.003076
376565,355275,439022,315385,23510,0,11:29:53.042358
381793,360076,435615,305435,23520,0,11:29:53.082002
385943,374679,416158,313096,23530,0,11:29:53.122212
359030,339492,342353,233257,23540,0,11:29:53.162382
365961,337469,375806,246640,23550,0,11:29:53.202360
377796,351011,422486,285006,23560,0,11:29:53.242004
379723,348460,416821,267324,23570,0,11:29:53.281831
381976,349707,401285,248914,23580,0,11:29:53.322249
384689,354400,405050,256673,23590,0,11:29:53.362421
400411,379291,451370,319803,23600,0,11:29:53.421439
365428,334966,349317,231177,23610,0,11:29:53.442507
370262,336452,366537,239184,23620,0,11:29:53.482350
379032,342370,402389,252772,23630,0,11:29:53.522932
383175,356357,437481,292830,23640,0,11:29:53.562718
388399,355210,449614,290603,23650,0,11:29:53.602542
400013,370003,491587,335878,23660,0,11:29:53.652083
437062,445846,524287,488611,23670,0,11:29:53.688469
444198,442183,523972,449020,23680,0,11:29:53.722130
425138,361443,496612,261596,23690,0,11:29:53.780933
421726,361136,498189,261862,23700,0,11:29:53.812203
417688,363435,499009,270069,23710,0,11:29:53.842317
410105,358878,482162,266151,23720,0,11:29:53.881925
413500,361747,492770,274762,23730,0,11:29:53.921778
431600,399465,520363,365481,23740,0,11:29:53.961995
435867,457117,523279,524287,23750,0,11:29:54.001902
445962,473159,524287,524287,23760,0,11:29:54.042294
460609,480371,524287,524287,23770,0,11:29:54.081960
455550,459946,524287,520820,23780,0,11:29:54.122289
445882,425832,524287,437336,23790,0,11:29:54.162186
451926,427635,524287,438765,23800,0,11:29:54.201921
443320,444137,523051,509239,23810,0,11:29:54.242186
423118,442796,515087,519956,23820,0,11:29:54.281920
429408,454074,524287,524287,23830,0,11:29:54.322261
429328,449883,524287,524287,23840,0,11:29:54.363100
429082,415293,510659,430111,23850,0,11:29:54.422172
390428,345619,399886,227443,23860,0,11:29:54.442363
388912,349807,389610,231883,23870,0,11:29:54.481578
401890,355140,425377,250524,23880,0,11:29:54.522318
408707,342022,443862,230615,23890,0,11:29:54.561789
407673,338865,441673,227310,23900,0,11:29:54.611630
401372,340957,435965,236947,23910,0,11:29:54.642176
389101,349100,410604,244523,23920,0,11:29:54.681893
383536,358558,397881,249439,23930,0,11:29:54.721788
396898,361773,424266,260585,23940,0,11:29:54.761870
431853,396117,505486,350438,23950,0,11:29:54.802131
456131,451540,524287,475073,23960,0,11:29:54.842204
431635,381601,524287,467819,23970,0,11:29:54.881735
396744,356237,514096,306787,23980,0,11:29:54.922266
390727,358664,430725,243890,23990,0,11:29:54.962187
