PPG_IR1,PPG_IR2,PPG_G1,PPG_G2,PacketCounter,PacketLoss,Timestamp
109357,127020,206406,197202,580,10,10:50:02.533185
109354,127018,206403,197195,590,0,10:50:02.573205
109353,127019,206400,197202,600,0,10:50:02.612890
109357,127029,206401,197195,610,0,10:50:02.652196
109345,127009,206398,197195,620,0,10:50:02.692142
109350,127015,206401,197198,630,0,10:50:02.733333
109346,127013,206400,197198,640,0,10:50:02.772126
109346,127008,206393,197195,650,0,10:50:02.812542
109349,127012,206393,197190,660,0,10:50:02.853031
109359,127021,206397,197189,670,0,10:50:02.892486
109360,127016,206395,197187,680,0,10:50:02.932547
109351,127014,206391,197187,690,0,10:50:02.972351
109352,127012,206397,197187,700,0,10:50:03.013215
109345,127008,206392,197192,710,0,10:50:03.052954
109351,127018,206390,197184,720,0,10:50:03.092737
109349,127014,206387,197188,730,0,10:50:03.132382
109351,127016,206387,197186,740,0,10:50:03.172273
109341,127002,206382,197184,750,0,10:50:03.212064
109352,127013,206394,197192,760,0,10:50:03.252970
109340,126994,206389,197178,770,0,10:50:03.293258
109346,127011,206385,197179,780,0,10:50:03.333960
109336,126995,206385,197177,790,0,10:50:03.372542
109340,126999,206380,197177,800,0,10:50:03.413095
109340,126999,206378,197170,810,0,10:50:03.452871
109337,126998,206373,197167,820,0,10:50:03.493163
109340,126997,206381,197179,830,0,10:50:03.532934
109338,126995,206381,197181,840,0,10:50:03.572870
109343,127001,206376,197170,850,0,10:50:03.612985
109342,127001,206380,197177,860,0,10:50:03.653192
109337,126993,206376,197172,870,0,10:50:03.692665
109338,126991,206376,197173,880,0,10:50:03.733662
109336,126994,206371,197168,890,0,10:50:03.773221
109332,126986,206371,197174,900,0,10:50:03.813203
109335,126996,206373,197168,910,0,10:50:03.852285
109341,126999,206371,197164,920,0,10:50:03.892810
109336,126993,206370,197169,930,0,10:50:03.932863
109340,126993,206367,197166,940,0,10:50:03.973210
109335,126997,206356,197152,950,0,10:50:04.013021
109328,126982,206367,197163,960,0,10:50:04.052476
109332,126986,206358,197157,970,0,10:50:04.093326
109334,126986,206364,197162,980,0,10:50:04.132252
109332,126988,206371,197172,990,0,10:50:04.171972
109335,126986,206357,197161,1000,0,10:50:04.213265
109336,126989,206356,197159,1010,0,10:50:04.252752
109341,126997,206363,197160,1020,0,10:50:04.292750
109342,127000,206357,197158,1030,0,10:50:04.333183
109325,126982,206366,197165,1040,0,10:50:04.372210
109328,126985,206359,197160,1050,0,10:50:04.412838
109323,126979,206360,197166,1060,0,10:50:04.453481
109329,126987,206355,197152,1070,0,10:50:04.493349
109330,126990,206356,197157,1080,0,10:50:04.533567
109327,126984,206356,197163,1090,0,10:50:04.572150
109330,126985,206356,197158,1100,0,10:50:04.613540
109333,126989,206359,197163,1110,0,10:50:04.651873
109329,126986,206358,197165,1120,0,10:50:04.692317
109335,126985,206356,197158,1130,0,10:50:04.733489
109342,126983,206352,197155,1140,0,10:50:04.772527
109340,126987,206352,197161,1150,0,10:50:04.813505
109341,126990,206352,197153,1160,0,10:50:04.853602
109332,126982,206356,197157,1170,0,10:50:04.892638
109328,126976,206355,197153,1180,0,10:50:04.932482
109343,126987,206352,197150,1190,0,10:50:04.972951
109324,126969,206354,197155,1200,0,10:50:05.013373
109334,126987,206353,197147,1210,0,10:50:05.052950
109327,126976,206346,197143,1220,0,10:50:05.093442
109324,126976,206357,197152,1230,0,10:50:05.132540
109305,126967,206347,197148,1240,0,10:50:05.172168
109313,126967,206349,197151,1250,0,10:50:05.213401
109325,126979,206348,197141,1260,0,10:50:05.253415
109319,126964,206350,197145,1270,0,10:50:05.293373
109315,126968,206338,197138,1280,0,10:50:05.333388
109318,126970,206349,197150,1290,0,10:50:05.372685
109331,126981,206349,197145,1300,0,10:50:05.412451
109320,126969,206350,197152,1310,0,10:50:05.452359
109325,126967,206347,197148,1320,0,10:50:05.493563
109322,126971,206349,197147,1330,0,10:50:05.533374
109321,126971,206347,197151,1340,0,10:50:05.572722
109320,126968,206344,197153,1350,0,10:50:05.613645
109320,126972,206335,197145,1360,0,10:50:05.653403
109319,126968,206344,197154,1370,0,10:50:05.692105
109322,126975,206340,197145,1380,0,10:50:05.733377
109310,126959,206340,197147,1390,0,10:50:05.772666
109320,126965,206338,197144,1400,0,10:50:05.813393
109317,126970,206336,197136,1410,0,10:50:05.852587
109312,126957,206339,197138,1420,0,10:50:05.893483
109310,126960,206333,197142,1430,0,10:50:05.933401
109329,126969,206334,197135,1440,0,10:50:05.972360
109312,126971,206326,197134,1450,0,10:50:06.012979
109309,126958,206326,197131,1460,0,10:50:06.052916
109330,126965,206328,197128,1470,0,10:50:06.092652
109327,126959,206328,197134,1480,0,10:50:06.132463
109318,126956,206325,197133,1490,0,10:50:06.173089
109307,126947,206335,197138,1500,0,10:50:06.212044
109313,126951,206331,197129,1510,0,10:50:06.252822
109312,126955,206336,197133,1520,0,10:50:06.292958
109307,126948,206334,197135,1530,0,10:50:06.333248
109315,126958,206332,197131,1540,0,10:50:06.373145
109321,126964,206331,197137,1550,0,10:50:06.412281
109307,126949,206333,197129,1560,0,10:50:06.452531
109295,126957,206330,197133,1570,0,10:50:06.492916
109290,126941,206333,197137,1580,0,10:50:06.533021
109306,126962,206332,197137,1590,0,10:50:06.573316
109304,126956,206337,197135,1600,0,10:50:06.613207
109303,126954,206334,197133,1610,0,10:50:06.653144
109309,126956,206327,197123,1620,0,10:50:06.693259
109297,126943,206328,197131,1630,0,10:50:06.733039
109310,126957,206328,197126,1640,0,10:50:06.773329
109307,126957,206329,197130,1650,0,10:50:06.812762
109302,126950,206327,197130,1660,0,10:50:06.853142
109321,126952,206327,197130,1670,0,10:50:06.893258
109323,126956,206322,197122,1680,0,10:50:06.932717
109318,126947,206333,197130,1690,0,10:50:06.972141
109312,126950,206319,197131,1700,0,10:50:07.012847
109308,126943,206299,197119,1710,0,10:50:07.053076
109300,126942,206302,197122,1720,0,10:50:07.092064
109321,126946,206307,197123,1730,0,10:50:07.132652
109309,126948,206319,197117,1740,0,10:50:07.172470
109302,126950,206309,197123,1750,0,10:50:07.212537
109299,126942,206314,197122,1760,0,10:50:07.253329
109297,126944,206318,197122,1770,0,10:50:07.292609
109329,126943,206316,197122,1780,0,10:50:07.332635
109335,126941,206319,197126,1790,0,10:50:07.372792
109332,126952,206317,197123,1800,0,10:50:07.412867
109320,126946,206322,197122,1810,0,10:50:07.453141
109319,126954,206311,197111,1820,0,10:50:07.492095
109312,126951,206310,197117,1830,0,10:50:07.533101
109313,126954,206310,197117,1840,0,10:50:07.572975
109263,126944,206310,197113,1850,0,10:50:07.612868
109269,126948,206309,197115,1860,0,10:50:07.652759
109265,126942,206308,197111,1870,0,10:50:07.692959
109261,126944,206305,197110,1880,0,10:50:07.733582
109275,126943,206312,197122,1890,0,10:50:07.772745
109277,126936,206326,197112,1900,0,10:50:07.812102
109284,126935,206324,197114,1910,0,10:50:07.853220
109304,126957,206320,197113,1920,0,10:50:07.893232
109300,126947,206316,197116,1930,0,10:50:07.932889
109343,126946,206313,197118,1940,0,10:50:07.972079
109342,126944,206304,197105,1950,0,10:50:08.013277
109367,126941,206306,197115,1960,0,10:50:08.053016
109358,126941,206306,197119,1970,0,10:50:08.092912
109350,126941,206307,197113,1980,0,10:50:08.132966
109332,126945,206301,197117,1990,0,10:50:08.173048
109315,126935,206293,197118,2000,0,10:50:08.213288
109309,126945,206292,197118,2010,0,10:50:08.252428
109293,126935,206297,197115,2020,0,10:50:08.293312
109264,126934,206305,197121,2030,0,10:50:08.332952
109247,126934,206304,197112,2040,0,10:50:08.372260
109261,126934,206306,197120,2050,0,10:50:08.413315
109268,126935,206307,197111,2060,0,10:50:08.452806
109270,126928,206315,197110,2070,0,10:50:08.493776
109283,126939,206312,197112,2080,0,10:50:08.532407
109287,126936,206308,197114,2090,0,10:50:08.572777
109293,126940,206310,197116,2100,0,10:50:08.612670
109295,126940,206303,197116,2110,0,10:50:08.652868
109292,126933,206300,197111,2120,0,10:50:08.692636
109297,126942,206299,197107,2130,0,10:50:08.732028
109298,126941,206298,197111,2140,0,10:50:08.773064
109296,126939,206294,197105,2150,0,10:50:08.812153
109297,126942,206280,197111,2160,0,10:50:08.853275
109295,126941,206318,197115,2170,0,10:50:08.892347
109289,126932,206315,197103,2180,0,10:50:08.932815
109297,126939,206307,197101,2190,0,10:50:08.973084
109291,126931,206306,197104,2200,0,10:50:09.012547
109297,126949,206299,197107,2210,0,10:50:09.053299
109291,126931,206294,197096,2220,0,10:50:09.099194
109291,126934,206291,197099,2230,0,10:50:09.143076
109289,126933,206256,197101,2240,0,10:50:09.173994
109288,126934,206235,197098,2250,0,10:50:09.213887
109288,126932,206240,197099,2260,0,10:50:09.252822
109283,126924,206205,197095,2270,0,10:50:09.292000
109288,126927,206224,197091,2280,0,10:50:09.333060
109288,126927,206246,197098,2290,0,10:50:09.373041
109292,126931,206266,197098,2300,0,10:50:09.415928
109283,126923,206278,197105,2310,0,10:50:09.453824
109288,126926,206286,197103,2320,0,10:50:09.492553
109285,126922,206356,197111,2330,0,10:50:09.532447
109282,126920,206358,197106,2340,0,10:50:09.572340
109291,126933,206376,197104,2350,0,10:50:09.612066
109287,126927,206348,197101,2360,0,10:50:09.652984
109284,126929,206326,197101,2370,0,10:50:09.692024
109285,126927,206311,197099,2380,0,10:50:09.733012
109284,126927,206303,197104,2390,0,10:50:09.772829
109280,126926,206288,197100,2400,0,10:50:09.812100
109291,126937,206274,197094,2410,0,10:50:09.852495
109278,126920,206225,197096,2420,0,10:50:09.893202
109279,126923,206230,197095,2430,0,10:50:09.933426
109278,126922,206244,197093,2440,0,10:50:09.973298
109287,126932,206263,197094,2450,0,10:50:10.013276
109285,126928,206273,197096,2460,0,10:50:10.052520
109282,126920,206270,197092,2470,0,10:50:10.093327
109284,126922,206278,197094,2480,0,10:50:10.133138
109278,126916,206274,197089,2490,0,10:50:10.173290
109288,126922,206273,197090,2500,0,10:50:10.212720
109279,126915,206274,197085,2510,0,10:50:10.252075
109283,126923,206274,197090,2520,0,10:50:10.293272
109281,126915,206272,197085,2530,0,10:50:10.332237
109280,126917,206277,197089,2540,0,10:50:10.372067
109282,126917,206276,197088,2550,0,10:50:10.413272
109275,126912,206281,197091,2560,0,10:50:10.452081
109276,126910,206279,197092,2570,0,10:50:10.493367
109279,126919,206278,197093,2580,0,10:50:10.533424
109276,126913,206274,197085,2590,0,10:50:10.573308
109271,126908,206276,197092,2600,0,10:50:10.613242
109280,126922,206272,197088,2610,0,10:50:10.653126
109282,126921,206270,197081,2620,0,10:50:10.693214
109270,126903,206278,197085,2630,0,10:50:10.732444
109279,126916,206279,197090,2640,0,10:50:10.772711
109274,126908,206269,197089,2650,0,10:50:10.812760
109285,126920,206274,197092,2660,0,10:50:10.852292
109272,126905,206268,197080,2670,0,10:50:10.893038
109276,126913,206269,197087,2680,0,10:50:10.933351
109280,126918,206270,197089,2690,0,10:50:10.973061
109275,126912,206271,197090,2700,0,10:50:11.012768
109279,126916,206274,197088,2710,0,10:50:11.052077
109276,126914,206269,197086,2720,0,10:50:11.092930
109271,126904,206264,197085,2730,0,10:50:11.132682
109279,126917,206270,197091,2740,0,10:50:11.173323
109278,126915,206270,197081,2750,0,10:50:11.212077
109276,126914,206262,197080,2760,0,10:50:11.252493
109284,126925,206265,197080,2770,0,10:50:11.292167
109276,126911,206269,197085,2780,0,10:50:11.333286
109276,126914,206264,197077,2790,0,10:50:11.372904
109271,126910,206265,197080,2800,0,10:50:11.413291
109270,126907,206263,197076,2810,0,10:50:11.453119
109271,126905,206263,197071,2820,0,10:50:11.493223
109274,126910,206262,197074,2830,0,10:50:11.532641
109266,126901,206257,197073,2840,0,10:50:11.573260
109272,126904,206255,197068,2850,0,10:50:11.612663
109269,126906,206252,197066,2860,0,10:50:11.652428
109274,126910,206258,197080,2870,0,10:50:11.692625
109274,126907,206256,197070,2880,0,10:50:11.732785
109272,126907,206262,197074,2890,0,10:50:11.773166
109279,126911,206258,197072,2900,0,10:50:11.813128
109272,126908,206255,197075,2910,0,10:50:11.852815
109269,126906,206258,197076,2920,0,10:50:11.892399
109270,126902,206259,197073,2930,0,10:50:11.933385
109269,126906,206258,197079,2940,0,10:50:11.972093
109263,126901,206259,197076,2950,0,10:50:12.013164
109266,126904,206255,197074,2960,0,10:50:12.053313
109266,126905,206257,197074,2970,0,10:50:12.093738
109271,126907,206264,197083,2980,0,10:50:12.132784
109277,126907,206254,197072,2990,0,10:50:12.172047
109266,126900,206252,197072,3000,0,10:50:12.213315
109269,126905,206256,197075,3010,0,10:50:12.252892
109281,126904,206255,197066,3020,0,10:50:12.292354
109275,126899,206251,197066,3030,0,10:50:12.333043
109275,126901,206258,197076,3040,0,10:50:12.373093
109271,126900,206255,197063,3050,0,10:50:12.412045
109264,126898,206248,197065,3060,0,10:50:12.453067
109270,126903,206245,197063,3070,0,10:50:12.493013
109265,126898,206251,197066,3080,0,10:50:12.533548
109268,126896,206249,197065,3090,0,10:50:12.573727
109262,126897,206249,197066,3100,0,10:50:12.613241
109246,126889,206246,197066,3110,0,10:50:12.653289
109250,126896,206243,197065,3120,0,10:50:12.693312
109254,126898,206245,197067,3130,0,10:50:12.732622
109254,126898,206249,197073,3140,0,10:50:12.773622
109260,126902,206247,197059,3150,0,10:50:12.813314
109257,126890,206246,197060,3160,0,10:50:12.852807
109268,126903,206244,197059,3170,0,10:50:12.893316
109259,126896,206247,197066,3180,0,10:50:12.932651
109260,126904,206242,197062,3190,0,10:50:12.973150
109266,126901,206248,197076,3200,0,10:50:13.012319
109260,126900,206238,197066,3210,0,10:50:13.052697
109263,126903,206243,197073,3220,0,10:50:13.092487
109255,126894,206241,197058,3230,0,10:50:13.132773
109266,126900,206241,197059,3240,0,10:50:13.173003
109260,126898,206238,197059,3250,0,10:50:13.212620
109269,126903,206241,197067,3260,0,10:50:13.252297
109258,126892,206233,197051,3270,0,10:50:13.293181
109256,126887,206235,197052,3280,0,10:50:13.332626
109267,126905,206236,197053,3290,0,10:50:13.372745
109280,126901,206236,197057,3300,0,10:50:13.412087
109274,126902,206235,197056,3310,0,10:50:13.452921
109267,126899,206235,197064,3320,0,10:50:13.492782
109262,126897,206235,197054,3330,0,10:50:13.532428
109269,126902,206234,197058,3340,0,10:50:13.572266
109258,126899,206235,197058,3350,0,10:50:13.613314
109261,126898,206234,197055,3360,0,10:50:13.653311
109257,126890,206231,197050,3370,0,10:50:13.693589
109256,126888,206231,197052,3380,0,10:50:13.732941
109245,126880,206232,197058,3390,0,10:50:13.773317
109259,126891,206233,197054,3400,0,10:50:13.812769
109243,126888,206231,197059,3410,0,10:50:13.853091
109248,126888,206242,197058,3420,0,10:50:13.892747
109253,126890,206239,197054,3430,0,10:50:13.932639
109250,126889,206236,197062,3440,0,10:50:13.973234
109250,126881,206237,197053,3450,0,10:50:14.013340
109251,126884,206236,197056,3460,0,10:50:14.052389
109258,126886,206235,197053,3470,0,10:50:14.092948
109265,126883,206230,197054,3480,0,10:50:14.132065
109262,126892,206235,197055,3490,0,10:50:14.173204
109263,126891,206228,197052,3500,0,10:50:14.212734
109262,126892,206216,197050,3510,0,10:50:14.242192
109251,126880,206204,197050,3520,0,10:50:14.292297
109260,126894,206226,197044,3530,0,10:50:14.323126
109253,126891,206213,197054,3540,0,10:50:14.373183
109253,126894,206225,197048,3550,0,10:50:14.402181
109240,126892,206217,197051,3560,0,10:50:14.453318
109250,126894,206226,197055,3570,0,10:50:14.492182
109268,126889,206221,197047,3580,0,10:50:14.532735
109282,126886,206223,197047,3590,0,10:50:14.574170
109274,126884,206220,197048,3600,0,10:50:14.603284
109253,126884,206226,197047,3610,0,10:50:14.642966
109262,126886,206221,197046,3620,0,10:50:14.682600
109260,126885,206220,197044,3630,0,10:50:14.723164
109249,126878,206223,197050,3640,0,10:50:14.763191
109242,126882,206220,197046,3650,0,10:50:14.802502
109218,126882,206223,197048,3660,0,10:50:14.843039
109221,126876,206225,197050,3670,0,10:50:14.882948
109233,126883,206219,197048,3680,0,10:50:14.922998
109203,126878,206222,197048,3690,0,10:50:14.962209
109224,126882,206223,197051,3700,0,10:50:15.003218
109233,126882,206222,197047,3710,0,10:50:15.042355
109254,126897,206222,197048,3720,0,10:50:15.082720
109242,126880,206220,197046,3730,0,10:50:15.122505
109250,126886,206223,197053,3740,0,10:50:15.162359
109287,126892,206224,197057,3750,0,10:50:15.202291
109288,126882,206226,197052,3760,0,10:50:15.243191
109292,126890,206219,197056,3770,0,10:50:15.282658
109290,126890,206223,197053,3780,0,10:50:15.322905
109278,126886,206225,197058,3790,0,10:50:15.363425
109275,126891,206230,197056,3800,0,10:50:15.402978
109264,126890,206226,197054,3810,0,10:50:15.442793
109250,126881,206218,197045,3820,0,10:50:15.483309
109247,126879,206219,197045,3830,0,10:50:15.528189
109241,126876,206221,197047,3840,0,10:50:15.565091
109192,126875,206221,197048,3850,0,10:50:15.602989
109202,126879,206219,197045,3860,0,10:50:15.642979
109212,126877,206247,197041,3870,0,10:50:15.683196
109230,126879,206245,197051,3880,0,10:50:15.723137
109231,126874,206235,197046,3890,0,10:50:15.763051
109241,126879,206233,197052,3900,0,10:50:15.802984
109230,126865,206223,197047,3910,0,10:50:15.842926
109240,126876,206209,197034,3920,0,10:50:15.882459
109245,126878,206213,197034,3930,0,10:50:15.923215
109245,126879,206221,197043,3940,0,10:50:15.962438
109240,126874,206212,197036,3950,0,10:50:16.002555
109249,126880,206168,197036,3960,0,10:50:16.042431
109247,126879,206177,197042,3970,0,10:50:16.082912
109234,126872,206207,197043,3980,0,10:50:16.122332
109241,126878,206215,197043,3990,0,10:50:16.163442
109241,126870,206219,197045,4000,0,10:50:16.202592
109242,126873,206218,197038,4010,0,10:50:16.243276
109239,126872,206212,197044,4020,0,10:50:16.282682
109241,126877,206224,197044,4030,0,10:50:16.322969
109249,126879,206219,197036,4040,0,10:50:16.362398
109241,126875,206213,197034,4050,0,10:50:16.402430
109238,126874,206182,197034,4060,0,10:50:16.442451
109244,126880,206181,197030,4070,0,10:50:16.483240
109246,126884,206192,197033,4080,0,10:50:16.523453
109243,126879,206158,197034,4090,0,10:50:16.562450
109231,126867,206170,197029,4100,0,10:50:16.603101
109239,126875,206185,197044,4110,0,10:50:16.643036
109234,126866,206188,197027,4120,0,10:50:16.682537
109244,126881,206195,197026,4130,0,10:50:16.722505
109239,126865,206201,197029,4140,0,10:50:16.762537
109242,126871,206273,197029,4150,0,10:50:16.803074
109238,126864,206275,197031,4160,0,10:50:16.842869
109237,126859,206281,197032,4170,0,10:50:16.883565
109229,126859,206262,197028,4180,0,10:50:16.922389
109233,126858,206234,197027,4190,0,10:50:16.963043
109233,126856,206220,197026,4200,0,10:50:17.002949
109232,126864,206205,197027,4210,0,10:50:17.043140
109239,126866,206206,197029,4220,0,10:50:17.082598
109235,126864,206168,197031,4230,0,10:50:17.122814
109242,126875,206152,197029,4240,0,10:50:17.162385
109242,126869,206170,197024,4250,0,10:50:17.203332
109241,126869,206182,197028,4260,0,10:50:17.242697
109237,126867,206185,197021,4270,0,10:50:17.282710
109241,126872,206191,197029,4280,0,10:50:17.323189
109234,126867,206194,197023,4290,0,10:50:17.363066
109232,126859,206193,197020,4300,0,10:50:17.402887
109239,126870,206198,197023,4310,0,10:50:17.442697
109239,126866,206201,197027,4320,0,10:50:17.482690
109239,126870,206196,197024,4330,0,10:50:17.522503
109237,126862,206196,197028,4340,0,10:50:17.563914
109231,126853,206206,197031,4350,0,10:50:17.603383
109241,126867,206200,197027,4360,0,10:50:17.642667
109234,126859,206199,197025,4370,0,10:50:17.687192
109238,126866,206202,197028,4380,0,10:50:17.723096
109242,126870,206197,197022,4390,0,10:50:17.762988
109238,126866,206200,197035,4400,0,10:50:17.802706
109233,126861,206196,197026,4410,0,10:50:17.843322
109233,126861,206197,197023,4420,0,10:50:17.882540
109238,126872,206191,197024,4430,0,10:50:17.924450
109238,126872,206193,197026,4440,0,10:50:17.963389
109236,126868,206192,197024,4450,0,10:50:18.003135
109232,126862,206193,197025,4460,0,10:50:18.043186
109234,126862,206200,197024,4470,0,10:50:18.083239
109231,126863,206194,197026,4480,0,10:50:18.122956
109231,126859,206193,197023,4490,0,10:50:18.162764
109227,126858,206189,197018,4500,0,10:50:18.203194
109234,126867,206192,197022,4510,0,10:50:18.243312
109233,126863,206188,197022,4520,0,10:50:18.283444
109224,126859,206185,197018,4530,0,10:50:18.322420
109237,126872,206186,197021,4540,0,10:50:18.362402
109229,126859,206186,197018,4550,0,10:50:18.403288
109236,126871,206189,197018,4560,0,10:50:18.442925
109229,126864,206183,197016,4570,0,10:50:18.483037
109230,126864,206186,197022,4580,0,10:50:18.523278
109229,126865,206184,197021,4590,0,10:50:18.562498
109231,126856,206193,197022,4600,0,10:50:18.602415
109228,126858,206187,197022,4610,0,10:50:18.642499
109229,126860,206186,197015,4620,0,10:50:18.683154
109226,126857,206185,197015,4630,0,10:50:18.722884
109223,126856,206190,197023,4640,0,10:50:18.762579
109228,126862,206189,197020,4650,0,10:50:18.802535
109232,126862,206188,197021,4660,0,10:50:18.842554
109229,126863,206184,197017,4670,0,10:50:18.883793
109221,126857,206182,197017,4680,0,10:50:18.923478
109225,126857,206183,197013,4690,0,10:50:18.962408
109229,126858,206186,197021,4700,0,10:50:19.002493
109223,126850,206186,197013,4710,0,10:50:19.043124
109227,126860,206181,197013,4720,0,10:50:19.083451
109232,126862,206180,197011,4730,0,10:50:19.123145
109226,126861,206174,197012,4740,0,10:50:19.163064
109243,126858,206178,197013,4750,0,10:50:19.219417
109229,126865,206183,197016,4760,0,10:50:19.262302
109240,126865,206181,197018,4770,0,10:50:19.302196
109224,126848,206184,197011,4780,0,10:50:19.335108
109227,126849,206178,197011,4790,0,10:50:19.372728
109243,126860,206178,197009,4800,0,10:50:19.412029
109244,126861,206175,197013,4810,0,10:50:19.452527
109224,126848,206172,197008,4820,0,10:50:19.492250
109225,126846,206172,197007,4830,0,10:50:19.533559
109224,126851,206175,197013,4840,0,10:50:19.583388
109227,126855,206179,197013,4850,0,10:50:19.602702
109232,126859,206177,197014,4860,0,10:50:19.644961
109224,126853,206176,197008,4870,0,10:50:19.682870
109221,126851,206177,197013,4880,0,10:50:19.722546
109225,126855,206184,197014,4890,0,10:50:19.763118
109219,126846,206187,197020,4900,0,10:50:19.803284
109225,126860,206180,197014,4910,0,10:50:19.841889
109223,126856,206179,197020,4920,0,10:50:19.882544
109214,126854,206179,197015,4930,0,10:50:19.922435
109226,126852,206189,197018,4940,0,10:50:19.962711
109226,126853,206173,197011,4950,0,10:50:20.002502
109228,126855,206184,197019,4960,0,10:50:20.042228
109227,126857,206191,197022,4970,0,10:50:20.083120
109225,126856,206179,197018,4980,0,10:50:20.122505
109226,126853,206176,197015,4990,0,10:50:20.173363
109214,126844,206175,197014,5000,0,10:50:20.202285
109225,126855,206176,197013,5010,0,10:50:20.242143
109229,126861,206171,197008,5020,0,10:50:20.283984
109225,126858,206173,197006,5030,0,10:50:20.322745
109225,126858,206175,197010,5040,0,10:50:20.362242
109219,126849,206174,197012,5050,0,10:50:20.402426
109245,126867,206172,197012,5060,0,10:50:20.441830
109236,126855,206176,197010,5070,0,10:50:20.483777
109231,126853,206176,197014,5080,0,10:50:20.522087
109230,126857,206176,197010,5090,0,10:50:20.562320
109213,126841,206172,197009,5100,0,10:50:20.602864
109217,126842,206175,197012,5110,0,10:50:20.643507
109224,126849,206195,197010,5120,0,10:50:20.693388
109221,126845,206170,197001,5130,0,10:50:20.732799
109219,126844,206193,197012,5140,0,10:50:20.772550
109223,126853,206169,197007,5150,0,10:50:20.802484
109203,126855,206187,197009,5160,0,10:50:20.852865
109213,126850,206181,197009,5170,0,10:50:20.892855
109205,126837,206183,197005,5180,0,10:50:20.933070
109217,126845,206173,197018,5190,0,10:50:20.963600
109217,126851,206178,197016,5200,0,10:50:21.002780
109240,126844,206172,197013,5210,0,10:50:21.042654
109218,126838,206172,197011,5220,0,10:50:21.082463
109224,126840,206168,197009,5230,0,10:50:21.122758
109225,126848,206163,197004,5240,0,10:50:21.162936
109225,126842,206167,197000,5250,0,10:50:21.203046
109219,126845,206148,197003,5260,0,10:50:21.242958
109217,126840,206152,197007,5270,0,10:50:21.282635
109222,126843,206153,197000,5280,0,10:50:21.323129
109218,126846,206156,197004,5290,0,10:50:21.363060
109222,126851,206159,197007,5300,0,10:50:21.402700
109209,126836,206163,197005,5310,0,10:50:21.443106
109209,126848,206164,196998,5320,0,10:50:21.482740
109217,126844,206162,197000,5330,0,10:50:21.523152
109250,126840,206166,197000,5340,0,10:50:21.562487
109250,126847,206168,196997,5350,0,10:50:21.602796
109233,126840,206165,197003,5360,0,10:50:21.642744
109229,126842,206163,196996,5370,0,10:50:21.682962
109225,126845,206166,197001,5380,0,10:50:21.722638
109214,126831,206162,197000,5390,0,10:50:21.762874
109188,126836,206158,196995,5400,0,10:50:21.802841
109180,126840,206159,196994,5410,0,10:50:21.842986
109185,126840,206158,196999,5420,0,10:50:21.882493
109168,126843,206170,196998,5430,0,10:50:21.923718
109147,126830,206161,197000,5440,0,10:50:21.962492
109181,126840,206157,197000,5450,0,10:50:22.002641
109183,126834,206181,196999,5460,0,10:50:22.042667
109206,126844,206181,196998,5470,0,10:50:22.082815
109210,126842,206175,196998,5480,0,10:50:22.122708
109210,126840,206171,196998,5490,0,10:50:22.162305
109229,126847,206167,197006,5500,0,10:50:22.203091
109269,126843,206170,197000,5510,0,10:50:22.243170
109246,126837,206163,196996,5520,0,10:50:22.282431
109267,126838,206161,197002,5530,0,10:50:22.332982
109276,126847,206167,197003,5540,0,10:50:22.362852
109245,126839,206145,196997,5550,0,10:50:22.402699
109241,126845,206146,196994,5560,0,10:50:22.442285
109217,126833,206145,196993,5570,0,10:50:22.482628
109211,126834,206160,197000,5580,0,10:50:22.522597
109210,126845,206157,196991,5590,0,10:50:22.562263
109149,126833,206156,196992,5600,0,10:50:22.603268
109163,126833,206156,196995,5610,0,10:50:22.643154
109175,126829,206170,196995,5620,0,10:50:22.682910
109191,126841,206165,196986,5630,0,10:50:22.723244
109193,126834,206159,196990,5640,0,10:50:22.762767
109203,126837,206159,196991,5650,0,10:50:22.802835
109209,126840,206153,196991,5660,0,10:50:22.843056
109216,126842,206156,196989,5670,0,10:50:22.883191
109210,126834,206145,196986,5680,0,10:50:22.922085
109202,126826,206149,196985,5690,0,10:50:22.963209
109201,126830,206152,196993,5700,0,10:50:23.003072
109208,126835,206153,196995,5710,0,10:50:23.042773
109206,126832,206123,196992,5720,0,10:50:23.083213
109199,126825,206126,196997,5730,0,10:50:23.122834
109209,126845,206134,196992,5740,0,10:50:23.161998
109210,126837,206178,196993,5750,0,10:50:23.202687
109207,126838,206174,196991,5760,0,10:50:23.242905
109209,126839,206172,196986,5770,0,10:50:23.282955
109212,126844,206167,196991,5780,0,10:50:23.322073
109200,126831,206161,196990,5790,0,10:50:23.362799
109207,126836,206155,196987,5800,0,10:50:23.403089
109204,126834,206153,196982,5810,0,10:50:23.442857
109203,126828,206147,196983,5820,0,10:50:23.483219
109211,126840,206136,196981,5830,0,10:50:23.521878
109200,126820,206098,196978,5840,0,10:50:23.562915
109203,126825,206107,196974,5850,0,10:50:23.603146
109193,126818,206116,196980,5860,0,10:50:23.642190
109200,126828,206063,196984,5870,0,10:50:23.683081
109200,126830,206079,196988,5880,0,10:50:23.722066
109197,126825,206098,196985,5890,0,10:50:23.762862
109202,126830,206113,196985,5900,0,10:50:23.801997
109198,126828,206130,196987,5910,0,10:50:23.842160
109206,126835,206132,196981,5920,0,10:50:23.882828
109208,126837,206157,196987,5930,0,10:50:23.922804
109197,126828,206227,196988,5940,0,10:50:23.962316
109204,126832,206214,196989,5950,0,10:50:24.003090
109202,126827,206229,196985,5960,0,10:50:24.042781
109195,126817,206210,196986,5970,0,10:50:24.082153
109199,126825,206175,196985,5980,0,10:50:24.123077
109199,126819,206160,196978,5990,0,10:50:24.162515
109200,126826,206151,196976,6000,0,10:50:24.202420
109205,126833,206143,196978,6010,0,10:50:24.243162
109199,126824,206139,196980,6020,0,10:50:24.283031
109207,126836,206084,196976,6030,0,10:50:24.322806
109200,126823,206092,196971,6040,0,10:50:24.362791
109202,126830,206097,196975,6050,0,10:50:24.402850
109197,126827,206115,196977,6060,0,10:50:24.442725
109199,126823,206117,196973,6070,0,10:50:24.483007
109201,126824,206122,196970,6080,0,10:50:24.522423
109209,126840,206133,196978,6090,0,10:50:24.562729
109203,126834,206137,196978,6100,0,10:50:24.602890
109199,126825,206141,196984,6110,0,10:50:24.642784
109202,126830,206143,196984,6120,0,10:50:24.683062
109194,126824,206143,196981,6130,0,10:50:24.724738
109196,126823,206139,196979,6140,0,10:50:24.762124
109198,126817,206139,196983,6150,0,10:50:24.802769
109198,126817,206137,196980,6160,0,10:50:24.842763
109196,126818,206138,196976,6170,0,10:50:24.883761
109194,126821,206134,196975,6180,0,10:50:24.922626
109196,126821,206132,196969,6190,0,10:50:24.962931
109198,126820,206134,196968,6200,0,10:50:25.003006
109204,126829,206137,196981,6210,0,10:50:25.043536
109194,126822,206132,196979,6220,0,10:50:25.082919
109193,126816,206134,196978,6230,0,10:50:25.122812
109196,126816,206132,196976,6240,0,10:50:25.161988
109200,126824,206130,196976,6250,0,10:50:25.206776
109192,126824,206130,196978,6260,0,10:50:25.241968
109193,126821,206132,196978,6270,0,10:50:25.282097
109197,126828,206129,196972,6280,0,10:50:25.322995
109187,126818,206124,196977,6290,0,10:50:25.362767
109198,126831,206128,196971,6300,0,10:50:25.402856
109196,126829,206130,196970,6310,0,10:50:25.442860
109190,126816,206126,196969,6320,0,10:50:25.482769
109190,126814,206128,196978,6330,0,10:50:25.522401
109189,126811,206132,196974,6340,0,10:50:25.563088
109188,126815,206123,196962,6350,0,10:50:25.602776
109197,126820,206129,196969,6360,0,10:50:25.642087
109192,126817,206129,196964,6370,0,10:50:25.682304
109206,126835,206126,196973,6380,0,10:50:25.722203
109195,126821,206125,196965,6390,0,10:50:25.762552
109199,126826,206122,196964,6400,0,10:50:25.803080
109192,126818,206125,196973,6410,0,10:50:25.842633
109191,126810,206125,196969,6420,0,10:50:25.882776
109193,126821,206126,196971,6430,0,10:50:25.922928
109190,126822,206123,196968,6440,0,10:50:25.962967
109194,126826,206124,196973,6450,0,10:50:26.002103
109192,126820,206125,196971,6460,0,10:50:26.042986
109197,126824,206123,196970,6470,0,10:50:26.082884
109199,126830,206125,196969,6480,0,10:50:26.122899
109197,126827,206128,196974,6490,0,10:50:26.162155
109192,126824,206122,196970,6500,0,10:50:26.202663
109193,126822,206127,196977,6510,0,10:50:26.242784
109196,126827,206126,196975,6520,0,10:50:26.283231
109190,126817,206127,196982,6530,0,10:50:26.324860
109189,126814,206128,196978,6540,0,10:50:26.362798
109188,126818,206128,196971,6550,0,10:50:26.403948
109198,126823,206127,196971,6560,0,10:50:26.442844
109189,126817,206127,196969,6570,0,10:50:26.482819
109200,126829,206125,196971,6580,0,10:50:26.522716
109185,126813,206124,196973,6590,0,10:50:26.563089
109191,126824,206126,196977,6600,0,10:50:26.602048
109193,126821,206117,196967,6610,0,10:50:26.642768
109197,126821,206119,196969,6620,0,10:50:26.682880
109208,126819,206121,196971,6630,0,10:50:26.723014
109198,126819,206125,196975,6640,0,10:50:26.762081
109198,126820,206119,196966,6650,0,10:50:26.802723
109192,126813,206121,196968,6660,0,10:50:26.842508
109188,126812,206117,196967,6670,0,10:50:26.892660
109192,126822,206123,196969,6680,0,10:50:26.922772
109193,126812,206121,196974,6690,0,10:50:26.962712
109196,126822,206122,196961,6700,0,10:50:27.002970
109181,126813,206116,196965,6710,0,10:50:27.042053
109189,126818,206117,196963,6720,0,10:50:27.083094
109181,126821,206117,196957,6730,0,10:50:27.122777
109181,126819,206115,196961,6740,0,10:50:27.162836
109186,126822,206117,196970,6750,0,10:50:27.203751
109181,126819,206119,196970,6760,0,10:50:27.242646
109185,126817,206119,196971,6770,0,10:50:27.282876
109186,126815,206120,196966,6780,0,10:50:27.322022
109185,126814,206114,196965,6790,0,10:50:27.363946
109192,126820,206125,196974,6800,0,10:50:27.403028
109188,126815,206119,196969,6810,0,10:50:27.443721
109188,126817,206119,196967,6820,0,10:50:27.483003
109185,126817,206119,196965,6830,0,10:50:27.528880
109185,126820,206119,196973,6840,0,10:50:27.562789
109184,126815,206122,196973,6850,0,10:50:27.603680
109194,126823,206116,196966,6860,0,10:50:27.642576
109190,126823,206115,196973,6870,0,10:50:27.732843
109177,126809,206115,196962,6880,0,10:50:27.738827
109179,126808,206116,196961,6890,0,10:50:27.804652
109182,126808,206114,196959,6900,0,10:50:27.804652
109180,126806,206116,196961,6910,0,10:50:27.845542
109190,126814,206110,196956,6920,0,10:50:27.887568
109202,126816,206106,196957,6930,0,10:50:27.922496
109194,126812,206123,196957,6940,0,10:50:27.962390
109188,126811,206113,196960,6950,0,10:50:28.003305
109189,126811,206114,196965,6960,0,10:50:28.043199
109188,126812,206111,196959,6970,0,10:50:28.083454
109181,126806,206113,196965,6980,0,10:50:28.122387
109185,126810,206113,196965,6990,0,10:50:28.162854
109184,126809,206108,196958,7000,0,10:50:28.203074
109180,126810,206107,196954,7010,0,10:50:28.242485
109183,126815,206111,196957,7020,0,10:50:28.282841
109178,126812,206115,196958,7030,0,10:50:28.322600
109175,126806,206129,196963,7040,0,10:50:28.362028
109185,126819,206129,196962,7050,0,10:50:28.402921
109188,126817,206123,196962,7060,0,10:50:28.442663
109186,126814,206117,196960,7070,0,10:50:28.482556
109182,126810,206116,196962,7080,0,10:50:28.522360
109188,126808,206120,196967,7090,0,10:50:28.562761
109193,126808,206112,196961,7100,0,10:50:28.602613
109191,126808,206111,196962,7110,0,10:50:28.642876
109191,126813,206110,196957,7120,0,10:50:28.682062
109190,126813,206087,196955,7130,0,10:50:28.723417
109190,126814,206095,196960,7140,0,10:50:28.763176
109198,126820,206098,196952,7150,0,10:50:28.802649
109186,126809,206104,196961,7160,0,10:50:28.842871
109181,126810,206098,196954,7170,0,10:50:28.882567
109179,126807,206102,196960,7180,0,10:50:28.922662
109169,126801,206086,196958,7190,0,10:50:28.962419
109196,126808,206102,196955,7200,0,10:50:29.002313
109210,126804,206115,196956,7210,0,10:50:29.042623
109205,126810,206117,196957,7220,0,10:50:29.082516
109191,126798,206107,196955,7230,0,10:50:29.122409
109200,126815,206109,196953,7240,0,10:50:29.162302
109186,126801,206104,196948,7250,0,10:50:29.202884
109184,126802,206106,196955,7260,0,10:50:29.258734
109160,126808,206112,196960,7270,0,10:50:29.302617
109126,126811,206110,196960,7280,0,10:50:29.367443
109154,126799,206103,196951,7290,0,10:50:29.368441
109121,126796,206104,196951,7300,0,10:50:29.421299
109139,126799,206108,196955,7310,0,10:50:29.445235
109149,126795,206102,196953,7320,0,10:50:29.487123
109164,126799,206124,196955,7330,0,10:50:29.525441
109176,126810,206116,196948,7340,0,10:50:29.562936
109170,126797,206115,196946,7350,0,10:50:29.602829
109204,126804,206108,196949,7360,0,10:50:29.642721
109232,126816,206109,196947,7370,0,10:50:29.682506
109220,126798,206102,196942,7380,0,10:50:29.733368
109248,126808,206104,196949,7390,0,10:50:29.762718
109227,126806,206102,196946,7400,0,10:50:29.802609
109206,126800,206091,196950,7410,0,10:50:29.842503
109190,126802,206087,196948,7420,0,10:50:29.882396
109191,126800,206093,196952,7430,0,10:50:29.922289
109176,126794,206094,196943,7440,0,10:50:29.962183
109177,126804,206094,196951,7450,0,10:50:30.003074
109128,126802,206097,196947,7460,0,10:50:30.042967
109131,126802,206095,196942,7470,0,10:50:30.083858
109145,126802,206096,196944,7480,0,10:50:30.124748
109162,126805,206111,196948,7490,0,10:50:30.163644
109165,126803,206109,196954,7500,0,10:50:30.202540
109166,126794,206103,196947,7510,0,10:50:30.243432
109177,126801,206102,196946,7520,0,10:50:30.285643
109171,126793,206106,196946,7530,0,10:50:30.324540
109169,126791,206100,196945,7540,0,10:50:30.362438
109179,126804,206103,196945,7550,0,10:50:30.403328
109177,126803,206101,196956,7560,0,10:50:30.443253
109174,126799,206096,196947,7570,0,10:50:30.483157
109176,126800,206100,196953,7580,0,10:50:30.523050
109172,126799,206097,196952,7590,0,10:50:30.562944
109168,126795,206121,196947,7600,0,10:50:30.602955
109178,126797,206119,196947,7610,0,10:50:30.642302
109167,126791,206114,196944,7620,0,10:50:30.685540
109173,126800,206104,196945,7630,0,10:50:30.722450
109176,126804,206105,196949,7640,0,10:50:30.762986
109169,126797,206099,196950,7650,0,10:50:30.802424
109171,126797,206083,196945,7660,0,10:50:30.843081
109170,126795,206041,196946,7670,0,10:50:30.883764
109172,126800,206066,196951,7680,0,10:50:30.923155
109174,126796,206040,196946,7690,0,10:50:30.963083
109167,126795,206031,196947,7700,0,10:50:31.002789
109168,126798,206047,196946,7710,0,10:50:31.042960
109174,126802,206059,196948,7720,0,10:50:31.083665
109171,126800,206072,196946,7730,0,10:50:31.123176
109167,126790,206114,196945,7740,0,10:50:31.162692
109168,126793,206089,196953,7750,0,10:50:31.202091
109174,126794,206088,196944,7760,0,10:50:31.243125
109174,126802,206128,196941,7770,0,10:50:31.282853
109166,126786,206176,196940,7780,0,10:50:31.323127
109175,126800,206166,196952,7790,0,10:50:31.362858
109171,126797,206171,196939,7800,0,10:50:31.403156
109166,126791,206167,196941,7810,0,10:50:31.442386
109172,126801,206149,196951,7820,0,10:50:31.482351
109173,126802,206129,196949,7830,0,10:50:31.522428
109161,126789,206109,196947,7840,0,10:50:31.562955
109170,126796,206098,196940,7850,0,10:50:31.602759
109166,126792,206093,196946,7860,0,10:50:31.632679
109162,126787,206045,196938,7870,0,10:50:31.683659
109172,126795,206042,196946,7880,0,10:50:31.722554
109174,126807,206049,196933,7890,0,10:50:31.762449
109168,126795,206064,196942,7900,0,10:50:31.803049
109170,126794,206067,196937,7910,0,10:50:31.832582
109165,126790,206077,196941,7920,0,10:50:31.882449
109167,126790,206079,196941,7930,0,10:50:31.922351
109166,126790,206085,196937,7940,0,10:50:31.962787
109163,126789,206082,196939,7950,0,10:50:32.002880
109164,126790,206081,196930,7960,0,10:50:32.032366
109165,126791,206083,196937,7970,0,10:50:32.072737
109171,126798,206078,196932,7980,0,10:50:32.112531
109165,126794,206079,196933,7990,0,10:50:32.152531
109161,126784,206083,196935,8000,0,10:50:32.193603
109167,126793,206081,196934,8010,0,10:50:32.233382
109161,126787,206081,196938,8020,0,10:50:32.274998
109163,126784,206079,196934,8030,0,10:50:32.313895
109164,126785,206083,196936,8040,0,10:50:32.352790
109169,126787,206085,196941,8050,0,10:50:32.392686
109169,126788,206085,196932,8060,0,10:50:32.432313
109157,126778,206077,196935,8070,0,10:50:32.472878
109167,126793,206084,196936,8080,0,10:50:32.512825
109161,126789,206081,196938,8090,0,10:50:32.552726
109167,126797,206075,196928,8100,0,10:50:32.592666
109159,126786,206083,196933,8110,0,10:50:32.633120
109162,126789,206084,196943,8120,0,10:50:32.672972
109167,126794,206082,196933,8130,0,10:50:32.712931
109159,126786,206085,196934,8140,0,10:50:32.752823
109162,126787,206082,196931,8150,0,10:50:32.803264
109165,126789,206077,196930,8160,0,10:50:32.832835
109165,126792,206082,196941,8170,0,10:50:32.873810
109162,126789,206080,196937,8180,0,10:50:32.912841
109165,126792,206075,196933,8190,0,10:50:32.952636
109160,126786,206076,196934,8200,0,10:50:32.992840
109168,126790,206086,196943,8210,0,10:50:33.032850
109164,126789,206086,196938,8220,0,10:50:33.072784
109161,126789,206081,196934,8230,0,10:50:33.112855
109168,126792,206079,196935,8240,0,10:50:33.152823
109171,126798,206081,196939,8250,0,10:50:33.193272
109167,126792,206083,196938,8260,0,10:50:33.232578
109164,126792,206082,196939,8270,0,10:50:33.273369
109165,126794,206079,196932,8280,0,10:50:33.312822
109159,126790,206077,196935,8290,0,10:50:33.353116
109161,126786,206082,196937,8300,0,10:50:33.392564
109170,126798,206082,196936,8310,0,10:50:33.432324
109163,126788,206083,196936,8320,0,10:50:33.473481
109161,126785,206079,196937,8330,0,10:50:33.512215
109163,126784,206069,196928,8340,0,10:50:33.552714
109157,126780,206081,196939,8350,0,10:50:33.593419
109160,126785,206077,196934,8360,0,10:50:33.632904
109157,126779,206080,196932,8370,0,10:50:33.672651
109164,126789,206074,196931,8380,0,10:50:33.712823
109165,126790,206073,196927,8390,0,10:50:33.753296
109162,126783,206079,196934,8400,0,10:50:33.792824
109160,126787,206076,196936,8410,0,10:50:33.833096
109163,126793,206078,196938,8420,0,10:50:33.873244
109163,126786,206076,196938,8430,0,10:50:33.912377
109162,126786,206080,196940,8440,0,10:50:33.952555
109164,126787,206070,196930,8450,0,10:50:33.993286
109156,126784,206072,196934,8460,0,10:50:34.032384
109163,126790,206074,196935,8470,0,10:50:34.072480
109166,126792,206073,196925,8480,0,10:50:34.113081
109160,126786,206069,196925,8490,0,10:50:34.152520
109158,126785,206070,196925,8500,0,10:50:34.192700
109162,126793,206075,196936,8510,0,10:50:34.233367
109163,126794,206075,196936,8520,0,10:50:34.272821
109159,126792,206069,196928,8530,0,10:50:34.313404
109155,126780,206068,196926,8540,0,10:50:34.352209
109163,126785,206066,196921,8550,0,10:50:34.393331
109156,126779,206070,196924,8560,0,10:50:34.433393
109166,126788,206073,196927,8570,0,10:50:34.473511
109167,126787,206071,196924,8580,0,10:50:34.513056
109155,126784,206063,196919,8590,0,10:50:34.552234
109157,126787,206060,196920,8600,0,10:50:34.592819
109153,126777,206066,196927,8610,0,10:50:34.633673
109154,126781,206070,196931,8620,0,10:50:34.672842
109148,126771,206071,196931,8630,0,10:50:34.713441
109158,126783,206071,196934,8640,0,10:50:34.752551
109157,126781,206071,196933,8650,0,10:50:34.793725
109160,126781,206072,196931,8660,0,10:50:34.833356
109157,126784,206068,196927,8670,0,10:50:34.873423
109160,126784,206068,196926,8680,0,10:50:34.912820
109150,126776,206069,196925,8690,0,10:50:34.952660
109159,126783,206069,196923,8700,0,10:50:34.992820
109158,126785,206061,196925,8710,0,10:50:35.032686
109158,126785,206071,196925,8720,0,10:50:35.073335
109164,126789,206067,196932,8730,0,10:50:35.113728
109158,126782,206066,196928,8740,0,10:50:35.152561
109155,126781,206062,196928,8750,0,10:50:35.192293
109152,126779,206065,196930,8760,0,10:50:35.232672
109155,126781,206065,196931,8770,0,10:50:35.272960
109157,126784,206064,196929,8780,0,10:50:35.312435
109153,126781,206066,196923,8790,0,10:50:35.355756
109165,126791,206064,196926,8800,0,10:50:35.392494
109160,126787,206062,196923,8810,0,10:50:35.432726
109162,126786,206068,196929,8820,0,10:50:35.472483
109158,126788,206062,196920,8830,0,10:50:35.513379
109158,126782,206065,196928,8840,0,10:50:35.552555
109155,126784,206060,196922,8850,0,10:50:35.592448
109159,126788,206070,196932,8860,0,10:50:35.633454
109153,126779,206064,196933,8870,0,10:50:35.673347
109169,126787,206066,196928,8880,0,10:50:35.712684
109182,126783,206066,196930,8890,0,10:50:35.752577
109180,126787,206061,196917,8900,0,10:50:35.792767
109171,126780,206059,196920,8910,0,10:50:35.832686
109166,126780,206061,196925,8920,0,10:50:35.872484
109153,126773,206059,196925,8930,0,10:50:35.913329
109166,126778,206064,196928,8940,0,10:50:35.952637
109152,126780,206067,196929,8950,0,10:50:35.993092
109154,126777,206063,196927,8960,0,10:50:36.032481
109154,126782,206061,196927,8970,0,10:50:36.073490
109130,126778,206062,196924,8980,0,10:50:36.113021
109149,126777,206062,196925,8990,0,10:50:36.152553
109170,126788,206060,196923,9000,0,10:50:36.192851
109164,126783,206058,196921,9010,0,10:50:36.233439
109161,126781,206061,196920,9020,0,10:50:36.272512
109164,126781,206065,196923,9030,0,10:50:36.313066
109161,126781,206063,196920,9040,0,10:50:36.352474
109150,126780,206057,196911,9050,0,10:50:36.392689
109136,126776,206056,196913,9060,0,10:50:36.432598
109134,126780,206054,196912,9070,0,10:50:36.472536
109121,126781,206061,196921,9080,0,10:50:36.513494
109123,126771,206057,196920,9090,0,10:50:36.553016
109133,126780,206057,196917,9100,0,10:50:36.592637
109133,126768,206055,196915,9110,0,10:50:36.632533
109145,126780,206057,196913,9120,0,10:50:36.672804
109149,126778,206060,196916,9130,0,10:50:36.712687
109155,126777,206058,196914,9140,0,10:50:36.752771
109185,126784,206061,196920,9150,0,10:50:36.792404
109208,126780,206063,196917,9160,0,10:50:36.832722
109197,126784,206057,196915,9170,0,10:50:36.872443
109204,126780,206059,196919,9180,0,10:50:36.912741
109188,126775,206068,196922,9190,0,10:50:36.953123
109171,126769,206061,196914,9200,0,10:50:36.992630
109162,126768,206059,196917,9210,0,10:50:37.033223
109161,126778,206062,196916,9220,0,10:50:37.072842
109146,126766,206055,196910,9230,0,10:50:37.112571
109142,126784,206063,196925,9240,0,10:50:37.152554
109096,126777,206055,196919,9250,0,10:50:37.192624
109113,126779,206066,196927,9260,0,10:50:37.232756
109128,126782,206088,196925,9270,0,10:50:37.272912
109137,126780,206069,196918,9280,0,10:50:37.312809
109142,126780,206067,196915,9290,0,10:50:37.352917
109145,126778,206061,196919,9300,0,10:50:37.392812
109151,126775,206059,196916,9310,0,10:50:37.432643
109147,126777,206061,196920,9320,0,10:50:37.472354
109160,126787,206057,196915,9330,0,10:50:37.512590
109156,126780,206060,196913,9340,0,10:50:37.552482
109153,126772,206062,196921,9350,0,10:50:37.592098
109148,126771,206055,196922,9360,0,10:50:37.632582
109147,126771,206055,196915,9370,0,10:50:37.672943
109150,126773,206038,196914,9380,0,10:50:37.712471
109144,126766,206046,196908,9390,0,10:50:37.752483
109147,126770,206090,196917,9400,0,10:50:37.792460
109147,126769,206079,196912,9410,0,10:50:37.832914
109153,126777,206076,196912,9420,0,10:50:37.872475
109149,126774,206070,196920,9430,0,10:50:37.912593
109148,126770,206067,196920,9440,0,10:50:37.952958
109147,126764,206062,196912,9450,0,10:50:37.992461
109141,126765,206020,196913,9460,0,10:50:38.034087
109145,126769,206021,196911,9470,0,10:50:38.073638
109154,126778,206037,196913,9480,0,10:50:38.112534
109152,126776,205972,196911,9490,0,10:50:38.152427
109141,126765,205989,196907,9500,0,10:50:38.192649
109147,126771,206013,196908,9510,0,10:50:38.232527
109146,126777,206025,196911,9520,0,10:50:38.272498
109150,126776,206030,196912,9530,0,10:50:38.312390
109144,126766,206067,196910,9540,0,10:50:38.352982
109146,126770,206128,196913,9550,0,10:50:38.392495
109143,126766,206119,196919,9560,0,10:50:38.433290
109144,126766,206124,196916,9570,0,10:50:38.472813
109137,126760,206093,196919,9580,0,10:50:38.512335
109147,126769,206069,196912,9590,0,10:50:38.552637
109149,126776,206058,196905,9600,0,10:50:38.592669
109142,126769,206047,196906,9610,0,10:50:38.632958
109149,126777,206004,196907,9620,0,10:50:38.672433
109138,126768,205992,196906,9630,0,10:50:38.712486
109143,126772,206001,196906,9640,0,10:50:38.752666
109142,126767,206016,196909,9650,0,10:50:38.792535
109144,126775,206027,196904,9660,0,10:50:38.832427
109141,126764,206036,196907,9670,0,10:50:38.872952
109143,126765,206039,196905,9680,0,10:50:38.912805
109140,126765,206037,196904,9690,0,10:50:38.952166
109143,126771,206038,196904,9700,0,10:50:38.992451
109142,126767,206039,196906,9710,0,10:50:39.032350
109140,126769,206043,196903,9720,0,10:50:39.072256
109145,126769,206043,196901,9730,0,10:50:39.112159
109141,126764,206039,196899,9740,0,10:50:39.152072
109157,126780,206045,196904,9750,0,10:50:39.227267
109148,126771,206042,196900,9760,0,10:50:39.251716
109145,126769,206043,196902,9770,0,10:50:39.272680
109146,126765,206043,196902,9780,0,10:50:39.321550
109149,126773,206040,196906,9790,0,10:50:39.352467
109144,126762,206045,196907,9800,0,10:50:39.392363
109146,126771,206040,196898,9810,0,10:50:39.432648
109135,126755,206045,196903,9820,0,10:50:39.472322
109145,126765,206044,196905,9830,0,10:50:39.512065
109140,126759,206038,196896,9840,0,10:50:39.552629
109138,126759,206043,196904,9850,0,10:50:39.592025
109144,126770,206044,196905,9860,0,10:50:39.632624
109141,126767,206043,196900,9870,0,10:50:39.672223
109144,126764,206044,196907,9880,0,10:50:39.712806
109139,126759,206042,196906,9890,0,10:50:39.752854
109136,126755,206040,196904,9900,0,10:50:39.792815
109139,126762,206040,196903,9910,0,10:50:39.833605
109142,126764,206041,196898,9920,0,10:50:39.872781
109140,126757,206039,196903,9930,0,10:50:39.912686
109144,126769,206033,196896,9940,0,10:50:39.952833
109138,126763,206043,196905,9950,0,10:50:39.993327
109145,126769,206044,196905,9960,0,10:50:40.032743
109145,126771,206042,196908,9970,0,10:50:40.073149
109143,126774,206036,196907,9980,0,10:50:40.112833
109144,126767,206043,196912,9990,0,10:50:40.152956
109145,126775,206040,196905,10000,0,10:50:40.192811
109150,126778,206033,196898,10010,0,10:50:40.232812
109142,126768,206043,196905,10020,0,10:50:40.272018
109141,126766,206039,196899,10030,0,10:50:40.312108
109143,126765,206044,196909,10040,0,10:50:40.352673
109142,126768,206039,196903,10050,0,10:50:40.393310
109147,126778,206035,196903,10060,0,10:50:40.433200
109137,126763,206041,196903,10070,0,10:50:40.472814
109148,126771,206033,196899,10080,0,10:50:40.512802
109144,126768,206035,196901,10090,0,10:50:40.553277
109144,126766,206035,196890,10100,0,10:50:40.592799
109142,126771,206035,196901,10110,0,10:50:40.632535
109139,126766,206031,196899,10120,0,10:50:40.672799
109137,126762,206032,196898,10130,0,10:50:40.712100
109140,126768,206034,196899,10140,0,10:50:40.752884
109148,126772,206036,196901,10150,0,10:50:40.792093
109141,126765,206033,196897,10160,0,10:50:40.832985
109135,126753,206040,196906,10170,0,10:50:40.872877
109130,126767,206045,196902,10180,0,10:50:40.912770
109151,126760,206030,196897,10190,0,10:50:40.952898
109153,126767,206031,196896,10200,0,10:50:40.992798
109144,126758,206033,196901,10210,0,10:50:41.033106
109147,126769,206034,196900,10220,0,10:50:41.072798
109147,126768,206039,196900,10230,0,10:50:41.113340
109142,126759,206038,196898,10240,0,10:50:41.152654
109142,126762,206031,196899,10250,0,10:50:41.192108
109141,126766,206031,196895,10260,0,10:50:41.232228
109141,126770,206034,196900,10270,0,10:50:41.272963
109141,126765,206033,196898,10280,0,10:50:41.312799
109125,126756,206026,196894,10290,0,10:50:41.352793
109125,126752,206028,196898,10300,0,10:50:41.392799
109131,126760,206035,196900,10310,0,10:50:41.433439
109142,126767,206031,196897,10320,0,10:50:41.472033
109138,126767,206027,196902,10330,0,10:50:41.512917
109143,126763,206032,196903,10340,0,10:50:41.552831
109137,126759,206029,196900,10350,0,10:50:41.593309
109142,126764,206033,196900,10360,0,10:50:41.632376
109144,126757,206032,196901,10370,0,10:50:41.673309
109135,126761,206033,196899,10380,0,10:50:41.712385
109135,126757,206027,196898,10390,0,10:50:41.752918
109133,126759,206026,196896,10400,0,10:50:41.792120
109134,126759,206027,196894,10410,0,10:50:41.833289
109133,126760,206022,196888,10420,0,10:50:41.872757
109150,126761,206029,196892,10430,0,10:50:41.913323
109137,126762,206026,196897,10440,0,10:50:41.952800
109144,126768,206023,196892,10450,0,10:50:41.993289
109139,126762,206027,196892,10460,0,10:50:42.031991
109137,126760,206024,196889,10470,0,10:50:42.072739
109155,126763,206030,196893,10480,0,10:50:42.112920
109145,126754,206031,196897,10490,0,10:50:42.152765
109142,126758,206030,196897,10500,0,10:50:42.192488
109140,126761,206029,196900,10510,0,10:50:42.232511
109138,126760,206029,196903,10520,0,10:50:42.272305
109145,126771,206024,196898,10530,0,10:50:42.312161
109148,126772,206029,196897,10540,0,10:50:42.352798
109141,126767,206029,196899,10550,0,10:50:42.392396
109138,126762,206027,196898,10560,0,10:50:42.432968
109126,126764,206028,196897,10570,0,10:50:42.473164
109124,126761,206035,196899,10580,0,10:50:42.512664
109128,126761,206043,196897,10590,0,10:50:42.552160
109119,126742,206042,196895,10600,0,10:50:42.593123
109136,126764,206042,196896,10610,0,10:50:42.632898
109133,126754,206031,196896,10620,0,10:50:42.672827
109130,126755,206026,196890,10630,0,10:50:42.712810
109130,126751,206024,196895,10640,0,10:50:42.753164
109152,126762,206025,196891,10650,0,10:50:42.792922
109149,126762,206021,196888,10660,0,10:50:42.832542
109138,126751,206024,196892,10670,0,10:50:42.872082
109138,126760,206029,196895,10680,0,10:50:42.912900
109140,126757,206020,196887,10690,0,10:50:42.952157
109138,126759,206004,196896,10700,0,10:50:42.992795
109131,126757,206009,196895,10710,0,10:50:43.032569
109134,126761,206015,196891,10720,0,10:50:43.072459
109135,126761,206021,196896,10730,0,10:50:43.112809
109132,126752,206023,196896,10740,0,10:50:43.153017
109123,126760,206024,196894,10750,0,10:50:43.192569
109128,126759,206027,196898,10760,0,10:50:43.232288
109161,126757,206022,196890,10770,0,10:50:43.272997
109158,126757,206031,196892,10780,0,10:50:43.312819
109151,126758,206021,196897,10790,0,10:50:43.352830
109151,126761,206018,196890,10800,0,10:50:43.392523
109139,126751,206021,196890,10810,0,10:50:43.432359
109132,126745,206020,196896,10820,0,10:50:43.473022
109128,126749,206013,196884,10830,0,10:50:43.512820
109108,126745,206018,196888,10840,0,10:50:43.552703
109090,126753,206013,196885,10850,0,10:50:43.593046
109107,126756,206019,196886,10860,0,10:50:43.632869
109080,126754,206016,196888,10870,0,10:50:43.672392
109091,126753,206021,196886,10880,0,10:50:43.712459
109099,126750,206040,196889,10890,0,10:50:43.752628
109115,126752,206044,196897,10900,0,10:50:43.793545
109118,126756,206032,196894,10910,0,10:50:43.833201
109126,126760,206028,196899,10920,0,10:50:43.872450
109152,126755,206025,196891,10930,0,10:50:43.912613
109182,126758,206023,196892,10940,0,10:50:43.952754
109172,126764,206025,196891,10950,0,10:50:43.992171
109206,126768,206016,196887,10960,0,10:50:44.033203
109193,126763,206018,196892,10970,0,10:50:44.072485
109170,126759,206005,196892,10980,0,10:50:44.112502
109158,126760,206010,196893,10990,0,10:50:44.152738
109139,126745,206022,196895,11000,0,10:50:44.193017
109130,126752,206021,196897,11010,0,10:50:44.232380
109092,126747,206017,196895,11020,0,10:50:44.272790
109072,126754,206012,196885,11030,0,10:50:44.313064
109080,126751,206014,196887,11040,0,10:50:44.352731
109089,126747,206021,196885,11050,0,10:50:44.393002
109105,126756,206024,196888,11060,0,10:50:44.432327
109110,126751,206026,196894,11070,0,10:50:44.472671
109120,126751,206018,196882,11080,0,10:50:44.512568
109130,126761,206024,196889,11090,0,10:50:44.552554
109127,126756,206016,196884,11100,0,10:50:44.592789
109125,126754,206016,196887,11110,0,10:50:44.633058
109118,126747,206019,196893,11120,0,10:50:44.672942
109133,126764,206016,196886,11130,0,10:50:44.712693
109128,126754,205996,196887,11140,0,10:50:44.752869
109130,126758,206001,196886,11150,0,10:50:44.794008
109118,126747,206018,196883,11160,0,10:50:44.832497
109127,126750,206045,196887,11170,0,10:50:44.872903
109129,126752,206037,196881,11180,0,10:50:44.926329
109131,126755,206016,196879,11190,0,10:50:44.955257
109123,126739,206027,196884,11200,0,10:50:44.993155
109125,126750,206012,196884,11210,0,10:50:45.036880
109128,126755,205988,196884,11220,0,10:50:45.079766
109124,126748,205980,196885,11230,0,10:50:45.113187
109123,126748,205986,196886,11240,0,10:50:45.152338
109121,126748,205966,196889,11250,0,10:50:45.192236
109121,126746,205938,196886,11260,0,10:50:45.232990
109119,126741,205957,196891,11270,0,10:50:45.273004
109124,126750,205961,196882,11280,0,10:50:45.312978
109120,126748,205982,196888,11290,0,10:50:45.352157
109123,126748,205992,196892,11300,0,10:50:45.392743
109121,126746,206003,196882,11310,0,10:50:45.432677
109123,126752,206011,196887,11320,0,10:50:45.472484
109131,126759,206075,196884,11330,0,10:50:45.512030
109125,126757,206081,196890,11340,0,10:50:45.552778
109120,126739,206100,196885,11350,0,10:50:45.592295
109117,126741,206075,196885,11360,0,10:50:45.633063
109120,126747,206057,196888,11370,0,10:50:45.672529
109128,126753,206040,196892,11380,0,10:50:45.713073
109124,126751,206024,196880,11390,0,10:50:45.752643
109124,126750,206010,196877,11400,0,10:50:45.792757
109129,126756,205961,196867,11410,0,10:50:45.833328
109122,126743,205968,196876,11420,0,10:50:45.872756
109130,126749,205977,196870,11430,0,10:50:45.912661
109127,126747,205990,196887,11440,0,10:50:45.952366
109130,126755,205999,196879,11450,0,10:50:45.992906
109124,126753,206001,196879,11460,0,10:50:46.032614
109124,126749,206007,196884,11470,0,10:50:46.072631
109128,126753,206006,196883,11480,0,10:50:46.112615
109121,126745,206003,196877,11490,0,10:50:46.152682
109120,126743,206002,196881,11500,0,10:50:46.192921
109116,126742,206009,196883,11510,0,10:50:46.233284
109122,126751,206007,196881,11520,0,10:50:46.272818
109129,126754,206009,196880,11530,0,10:50:46.312812
109121,126750,206006,196877,11540,0,10:50:46.352698
109118,126738,206003,196875,11550,0,10:50:46.392622
109123,126748,206004,196879,11560,0,10:50:46.433222
109116,126741,206007,196877,11570,0,10:50:46.472931
109126,126753,206005,196883,11580,0,10:50:46.513750
109122,126745,206009,196885,11590,0,10:50:46.552669
109123,126749,206007,196883,11600,0,10:50:46.592281
109118,126742,206011,196881,11610,0,10:50:46.632757
109120,126746,206001,196880,11620,0,10:50:46.672538
109120,126748,206004,196881,11630,0,10:50:46.713345
109116,126745,205999,196874,11640,0,10:50:46.752867
109115,126742,206004,196885,11650,0,10:50:46.792215
109126,126753,205998,196873,11660,0,10:50:46.832509
109118,126746,205999,196877,11670,0,10:50:46.873012
109125,126754,206008,196880,11680,0,10:50:46.912783
109120,126746,205998,196880,11690,0,10:50:46.953205
109124,126747,205999,196875,11700,0,10:50:46.992764
109123,126749,205996,196876,11710,0,10:50:47.033421
109113,126740,206000,196875,11720,0,10:50:47.073313
109123,126748,205997,196875,11730,0,10:50:47.113207
109122,126744,206007,196874,11740,0,10:50:47.153100
109120,126744,205999,196874,11750,0,10:50:47.192993
109118,126739,206005,196871,11760,0,10:50:47.232887
109113,126737,206003,196876,11770,0,10:50:47.272779
109117,126744,205996,196870,11780,0,10:50:47.313009
109121,126743,205998,196871,11790,0,10:50:47.352759
109116,126741,206001,196878,11800,0,10:50:47.392719
109117,126739,206002,196875,11810,0,10:50:47.433043
109119,126741,205998,196871,11820,0,10:50:47.473020
109114,126734,206002,196872,11830,0,10:50:47.512152
109122,126748,206004,196882,11840,0,10:50:47.552780
109118,126739,206006,196880,11850,0,10:50:47.593003
109121,126745,206000,196871,11860,0,10:50:47.632729
109115,126739,206002,196880,11870,0,10:50:47.672446
109115,126743,205998,196882,11880,0,10:50:47.713046
109122,126749,206000,196876,11890,0,10:50:47.752596
109124,126752,206006,196876,11900,0,10:50:47.792506
109122,126748,206003,196878,11910,0,10:50:47.833450
109122,126744,205998,196874,11920,0,10:50:47.872782
109122,126740,205995,196868,11930,0,10:50:47.912935
109114,126736,205997,196870,11940,0,10:50:47.952739
109114,126735,205997,196865,11950,0,10:50:47.993335
109114,126739,205995,196865,11960,0,10:50:48.032540
109122,126746,205995,196867,11970,0,10:50:48.072183
109118,126749,205992,196863,11980,0,10:50:48.111989
109123,126747,205995,196870,11990,0,10:50:48.152012
109137,126749,205992,196866,12000,0,10:50:48.192780
109130,126741,205994,196862,12010,0,10:50:48.232625
109125,126740,205991,196865,12020,0,10:50:48.272775
109131,126750,205995,196871,12030,0,10:50:48.312772
109119,126742,205995,196872,12040,0,10:50:48.352599
109117,126743,205992,196871,12050,0,10:50:48.392186
109116,126736,205997,196876,12060,0,10:50:48.433541
109118,126747,205995,196875,12070,0,10:50:48.472182
109118,126742,205995,196868,12080,0,10:50:48.512918
109108,126749,205995,196875,12090,0,10:50:48.552929
109109,126744,205991,196873,12100,0,10:50:48.592806
109111,126743,205992,196873,12110,0,10:50:48.632779
109109,126739,205992,196869,12120,0,10:50:48.672779
109108,126738,205988,196866,12130,0,10:50:48.713037
109102,126727,205997,196877,12140,0,10:50:48.752809
109110,126736,205997,196876,12150,0,10:50:48.792942
109108,126737,205990,196870,12160,0,10:50:48.833248
109125,126745,205991,196863,12170,0,10:50:48.873334
109101,126739,205990,196864,12180,0,10:50:48.912806
109113,126742,205988,196869,12190,0,10:50:48.953266
109118,126745,205990,196870,12200,0,10:50:48.992780
109114,126740,205994,196873,12210,0,10:50:49.033561
109099,126726,205985,196861,12220,0,10:50:49.072378
109115,126746,205985,196862,12230,0,10:50:49.112144
109108,126733,205990,196867,12240,0,10:50:49.153313
109110,126738,205991,196869,12250,0,10:50:49.193184
109113,126743,205993,196868,12260,0,10:50:49.232201
109105,126735,205993,196868,12270,0,10:50:49.273303
109130,126741,205991,196867,12280,0,10:50:49.311966
109123,126740,205984,196860,12290,0,10:50:49.352935
109117,126742,205983,196858,12300,0,10:50:49.392339
109123,126744,205993,196870,12310,0,10:50:49.433233
109104,126726,205990,196870,12320,0,10:50:49.472795
109110,126733,205982,196861,12330,0,10:50:49.503137
109113,126733,205991,196864,12340,0,10:50:49.552674
109109,126734,205991,196865,12350,0,10:50:49.583371
109113,126737,205992,196869,12360,0,10:50:49.622432
109118,126743,205985,196868,12370,0,10:50:49.662558
109112,126735,205993,196869,12380,0,10:50:49.703180
109106,126733,205994,196869,12390,0,10:50:49.743190
109109,126731,205995,196870,12400,0,10:50:49.783228
109108,126729,205991,196866,12410,0,10:50:49.823315
109114,126738,205988,196864,12420,0,10:50:49.863373
109109,126742,205995,196864,12430,0,10:50:49.902513
109129,126736,205986,196864,12440,0,10:50:49.942407
109123,126730,205990,196865,12450,0,10:50:49.983329
109123,126735,205989,196871,12460,0,10:50:50.022802
109114,126730,205989,196870,12470,0,10:50:50.062219
109113,126734,205989,196868,12480,0,10:50:50.102532
109114,126737,205987,196859,12490,0,10:50:50.143421
109111,126734,205989,196862,12500,0,10:50:50.183142
109120,126741,205988,196858,12510,0,10:50:50.222468
109096,126726,205997,196862,12520,0,10:50:50.262287
109097,126727,205984,196852,12530,0,10:50:50.302511
109094,126731,205983,196855,12540,0,10:50:50.343463
109108,126729,205977,196855,12550,0,10:50:50.383213
109125,126731,205981,196859,12560,0,10:50:50.422581
109129,126739,205989,196856,12570,0,10:50:50.462524
109116,126732,205979,196853,12580,0,10:50:50.502397
109113,126730,205983,196858,12590,0,10:50:50.543101
109110,126733,205983,196863,12600,0,10:50:50.583316
109102,126727,205981,196860,12610,0,10:50:50.622403
109072,126733,205979,196858,12620,0,10:50:50.662580
109097,126723,205985,196859,12630,0,10:50:50.702538
109074,126727,205990,196867,12640,0,10:50:50.742946
109081,126735,205987,196863,12650,0,10:50:50.782645
109088,126728,205983,196859,12660,0,10:50:50.822555
109099,126736,205992,196865,12670,0,10:50:50.863397
109110,126733,205987,196858,12680,0,10:50:50.902379
109106,126736,205987,196863,12690,0,10:50:50.942525
109144,126725,205990,196867,12700,0,10:50:50.983188
109151,126734,205987,196867,12710,0,10:50:51.022882
109156,126731,205988,196864,12720,0,10:50:51.062468
109144,126723,205992,196865,12730,0,10:50:51.102546
109134,126724,205989,196864,12740,0,10:50:51.142975
109124,126728,205982,196859,12750,0,10:50:51.183153
109118,126730,205989,196863,12760,0,10:50:51.222574
109116,126735,205981,196860,12770,0,10:50:51.272584
109111,126737,205984,196869,12780,0,10:50:51.302398
109063,126735,205984,196859,12790,0,10:50:51.343000
109063,126734,205989,196865,12800,0,10:50:51.382879
109066,126724,206003,196867,12810,0,10:50:51.422552
109084,126735,206006,196863,12820,0,10:50:51.463443
109092,126726,205999,196863,12830,0,10:50:51.502495
109104,126736,205991,196860,12840,0,10:50:51.543163
109104,126730,205991,196864,12850,0,10:50:51.583265
109108,126733,205989,196859,12860,0,10:50:51.622561
109109,126733,205991,196863,12870,0,10:50:51.662579
109102,126722,205989,196865,12880,0,10:50:51.702803
109106,126732,205968,196864,12890,0,10:50:51.742905
109103,126725,205973,196858,12900,0,10:50:51.792766
109102,126725,205949,196857,12910,0,10:50:51.822565
109102,126726,205983,196852,12920,0,10:50:51.862607
109109,126730,205974,196859,12930,0,10:50:51.902514
109109,126731,205989,196858,12940,0,10:50:51.942608
109111,126730,205982,196854,12950,0,10:50:51.982629
109100,126724,205989,196862,12960,0,10:50:52.022870
109106,126730,205984,196855,12970,0,10:50:52.062604
109106,126730,205955,196857,12980,0,10:50:52.102519
109108,126730,205965,196866,12990,0,10:50:52.142935
109101,126726,205969,196869,13000,0,10:50:52.183011
109109,126733,205932,196860,13010,0,10:50:52.223217
109104,126730,205944,196858,13020,0,10:50:52.262261
109106,126726,205959,196861,13030,0,10:50:52.302248
109095,126723,205965,196856,13040,0,10:50:52.343370
109108,126736,205975,196861,13050,0,10:50:52.384261
109104,126728,205980,196863,13060,0,10:50:52.458955
109103,126735,206008,196855,13070,0,10:50:52.494396
109101,126728,206053,196869,13080,0,10:50:52.505365
109104,126731,206028,196857,13090,0,10:50:52.543002
109103,126734,206050,196860,13100,0,10:50:52.582422
109099,126724,206028,196860,13110,0,10:50:52.623168
109101,126731,206014,196861,13120,0,10:50:52.662974
109101,126724,206005,196861,13130,0,10:50:52.702904
109099,126725,205991,196854,13140,0,10:50:52.743158
109108,126736,205989,196861,13150,0,10:50:52.783116
109105,126730,205984,196859,13160,0,10:50:52.823268
109105,126729,205977,196853,13170,0,10:50:52.863214
109106,126729,205938,196856,13180,0,10:50:52.913109
109094,126717,205925,196854,13190,0,10:50:52.943158
109093,126719,205938,196855,13200,0,10:50:52.983286
109100,126726,205942,196854,13210,0,10:50:53.022429
109100,126725,205951,196856,13220,0,10:50:53.062444
109101,126724,205961,196853,13230,0,10:50:53.102612
109106,126733,205964,196853,13240,0,10:50:53.143111
109098,126722,205967,196851,13250,0,10:50:53.184003
109103,126734,205970,196855,13260,0,10:50:53.222416
109093,126721,205972,196860,13270,0,10:50:53.263307
109103,126731,205970,196858,13280,0,10:50:53.303200
109100,126726,205973,196856,13290,0,10:50:53.343093
109101,126727,205969,196853,13300,0,10:50:53.382248
109098,126726,205972,196854,13310,0,10:50:53.422157
109096,126725,205970,196850,13320,0,10:50:53.463147
109106,126730,205976,196854,13330,0,10:50:53.559090
109097,126723,205975,196858,13340,0,10:50:53.559090
109100,126729,205971,196856,13350,0,10:50:53.605964
109102,126736,205970,196850,13360,0,10:50:53.642865
109095,126720,205973,196861,13370,0,10:50:53.662813
109098,126723,205972,196857,13380,0,10:50:53.702555
109108,126737,205976,196860,13390,0,10:50:53.742689
109107,126733,205969,196845,13400,0,10:50:53.782989
109105,126733,205975,196850,13410,0,10:50:53.823247
109107,126731,205968,196849,13420,0,10:50:53.862904
109094,126724,205973,196855,13430,0,10:50:53.902859
109102,126728,205971,196850,13440,0,10:50:53.943261
109100,126729,205974,196856,13450,0,10:50:53.984153
109095,126720,205973,196854,13460,0,10:50:54.022532
109092,126719,205970,196852,13470,0,10:50:54.062887
109097,126724,205971,196857,13480,0,10:50:54.102689
109099,126725,205968,196850,13490,0,10:50:54.142681
109101,126730,205973,196851,13500,0,10:50:54.182351
109102,126729,205969,196847,13510,0,10:50:54.222996
109096,126721,205968,196848,13520,0,10:50:54.262937
109093,126726,205968,196849,13530,0,10:50:54.302487
109101,126732,205964,196851,13540,0,10:50:54.342382
109097,126727,205961,196846,13550,0,10:50:54.383023
109095,126728,205959,196846,13560,0,10:50:54.423294
109097,126724,205960,196840,13570,0,10:50:54.463295
109088,126716,205957,196840,13580,0,10:50:54.502963
109092,126724,205958,196847,13590,0,10:50:54.542955
109089,126716,205959,196844,13600,0,10:50:54.583159
109092,126715,205963,196850,13610,0,10:50:54.622464
109090,126716,205958,196847,13620,0,10:50:54.663354
109091,126721,205956,196844,13630,0,10:50:54.702250
109094,126719,205965,196851,13640,0,10:50:54.742809
109095,126721,205959,196844,13650,0,10:50:54.783133
109094,126721,205954,196845,13660,0,10:50:54.822200
109091,126724,205956,196844,13670,0,10:50:54.862102
109094,126727,205957,196843,13680,0,10:50:54.902740
109095,126721,205962,196848,13690,0,10:50:54.942360
109107,126718,205965,196844,13700,0,10:50:54.983048
109109,126726,205961,196846,13710,0,10:50:55.022732
109104,126727,205965,196843,13720,0,10:50:55.062229
109094,126716,205960,196840,13730,0,10:50:55.102677
109084,126720,205956,196836,13740,0,10:50:55.143712
109077,126715,205964,196843,13750,0,10:50:55.183956
109084,126723,205979,196845,13760,0,10:50:55.223714
109085,126715,205978,196850,13770,0,10:50:55.263014
109084,126717,205964,196842,13780,0,10:50:55.301982
109079,126716,205959,196841,13790,0,10:50:55.342744
109081,126720,205962,196843,13800,0,10:50:55.383163
109090,126713,205959,196841,13810,0,10:50:55.423072
109107,126718,205952,196829,13820,0,10:50:55.473057
109086,126709,205949,196840,13830,0,10:50:55.512029
109096,126707,205957,196839,13840,0,10:50:55.553307
109092,126719,205955,196837,13850,0,10:50:55.592201
109086,126708,205954,196839,13860,0,10:50:55.633092
109092,126713,205958,196835,13870,0,10:50:55.672663
109084,126709,205960,196842,13880,0,10:50:55.712556
109091,126711,205956,196836,13890,0,10:50:55.742937
109091,126710,205959,196840,13900,0,10:50:55.782985
109095,126719,205957,196839,13910,0,10:50:55.842436
109091,126717,205956,196836,13920,0,10:50:55.862697
109108,126726,205958,196840,13930,0,10:50:55.901994
109095,126721,205958,196838,13940,0,10:50:55.942038
109099,126715,205960,196842,13950,0,10:50:55.982726
109099,126720,205959,196841,13960,0,10:50:56.022802
109100,126714,205959,196842,13970,0,10:50:56.062927
109098,126718,205959,196844,13980,0,10:50:56.102434
109094,126716,205955,196843,13990,0,10:50:56.142991
109088,126712,205956,196841,14000,0,10:50:56.183221
109089,126712,205958,196842,14010,0,10:50:56.222642
109091,126719,205965,196850,14020,0,10:50:56.262822
109092,126721,205955,196844,14030,0,10:50:56.302788
109068,126710,205955,196838,14040,0,10:50:56.343017
109079,126719,205967,196850,14050,0,10:50:56.383110
109081,126714,205977,196848,14060,0,10:50:56.422868
109089,126722,205970,196851,14070,0,10:50:56.462757
109083,126714,205967,196850,14080,0,10:50:56.502920
109087,126715,205966,196844,14090,0,10:50:56.543250
109089,126718,205960,196843,14100,0,10:50:56.582781
109110,126723,205956,196841,14110,0,10:50:56.622904
109096,126712,205955,196838,14120,0,10:50:56.662399
109094,126716,205958,196840,14130,0,10:50:56.703199
109069,126709,205951,196832,14140,0,10:50:56.743839
109070,126712,205955,196838,14150,0,10:50:56.783195
109084,126706,205944,196842,14160,0,10:50:56.823829
109076,126708,205968,196835,14170,0,10:50:56.862051
109089,126717,205947,196828,14180,0,10:50:56.902955
109086,126710,205947,196829,14190,0,10:50:56.952834
109069,126712,205948,196833,14200,0,10:50:56.983793
109065,126713,205951,196835,14210,0,10:50:57.032765
109102,126714,205958,196831,14220,0,10:50:57.073192
109098,126706,205958,196835,14230,0,10:50:57.112808
109091,126704,205953,196840,14240,0,10:50:57.152183
109096,126715,205951,196844,14250,0,10:50:57.192232
109091,126710,205949,196837,14260,0,10:50:57.223225
109087,126702,205955,196836,14270,0,10:50:57.262599
109086,126706,205953,196832,14280,0,10:50:57.303499
109065,126710,205950,196838,14290,0,10:50:57.342967
109053,126701,205953,196835,14300,0,10:50:57.382681
109044,126709,205953,196837,14310,0,10:50:57.422052
109041,126722,205960,196841,14320,0,10:50:57.462627
109049,126706,205972,196832,14330,0,10:50:57.502576
109071,126717,205971,196836,14340,0,10:50:57.542471
109079,126717,205961,196833,14350,0,10:50:57.582566
109076,126709,205963,196841,14360,0,10:50:57.622030
109083,126710,205954,196831,14370,0,10:50:57.663191
109125,126710,205950,196826,14380,0,10:50:57.702070
109125,126708,205950,196828,14390,0,10:50:57.743103
109126,126717,205944,196830,14400,0,10:50:57.782832
109147,126708,205946,196826,14410,0,10:50:57.822645
109127,126712,205925,196821,14420,0,10:50:57.863090
109102,126705,205930,196829,14430,0,10:50:57.902891
109089,126703,205934,196824,14440,0,10:50:57.942061
109089,126705,205936,196827,14450,0,10:50:57.983038
109079,126707,205947,196836,14460,0,10:50:58.023291
109022,126700,205950,196834,14470,0,10:50:58.062809
109035,126695,205949,196835,14480,0,10:50:58.103239
109050,126700,205960,196833,14490,0,10:50:58.143927
109052,126700,205946,196835,14500,0,10:50:58.182949
109069,126707,205954,196833,14510,0,10:50:58.222830
109075,126706,205954,196834,14520,0,10:50:58.262724
109075,126704,205953,196831,14530,0,10:50:58.303769
109078,126703,205931,196830,14540,0,10:50:58.343302
109088,126713,205955,196833,14550,0,10:50:58.382986
109088,126713,205947,196826,14560,0,10:50:58.423272
109084,126709,205948,196831,14570,0,10:50:58.473092
109085,126712,205920,196828,14580,0,10:50:58.502275
109087,126711,205916,196832,14590,0,10:50:58.543278
109082,126707,205955,196831,14600,0,10:50:58.583999
109082,126706,205974,196832,14610,0,10:50:58.622182
109087,126714,205951,196823,14620,0,10:50:58.663035
109089,126717,205963,196826,14630,0,10:50:58.702785
109088,126712,205961,196828,14640,0,10:50:58.743290
109085,126701,205957,196822,14650,0,10:50:58.793265
109086,126709,205954,196833,14660,0,10:50:58.822648
109083,126705,205927,196821,14670,0,10:50:58.862933
109089,126712,205905,196831,14680,0,10:50:58.902868
109082,126706,205919,196829,14690,0,10:50:58.943192
109084,126710,205863,196824,14700,0,10:50:58.982667
109081,126710,205884,196827,14710,0,10:50:59.022801
109078,126704,205904,196830,14720,0,10:50:59.062770
109074,126698,205921,196832,14730,0,10:50:59.102600
109082,126707,205939,196831,14740,0,10:50:59.142225
109089,126714,205943,196831,14750,0,10:50:59.183415
109082,126705,205991,196829,14760,0,10:50:59.222437
109083,126714,206026,196835,14770,0,10:50:59.262304
109077,126703,206012,196834,14780,0,10:50:59.302353
109080,126701,206028,196830,14790,0,10:50:59.342494
109089,126717,205996,196818,14800,0,10:50:59.382977
109078,126701,205970,196818,14810,0,10:50:59.423287
109078,126700,205963,196819,14820,0,10:50:59.463064
109082,126707,205954,196830,14830,0,10:50:59.502363
109077,126700,205944,196824,14840,0,10:50:59.542886
109079,126703,205897,196834,14850,0,10:50:59.582971
109075,126701,205905,196826,14860,0,10:50:59.622768
109080,126699,205909,196816,14870,0,10:50:59.663095
109076,126695,205922,196824,14880,0,10:50:59.703787
109078,126701,205928,196826,14890,0,10:50:59.743225
109081,126705,205936,196824,14900,0,10:50:59.782553
109076,126696,205936,196823,14910,0,10:50:59.823270
109077,126700,205941,196829,14920,0,10:50:59.863281
109077,126699,205944,196826,14930,0,10:50:59.912951
109082,126702,205937,196817,14940,0,10:50:59.952852
109077,126703,205940,196825,14950,0,10:50:59.993018
109082,126700,205944,196822,14960,0,10:51:00.032464
109085,126709,205936,196817,14970,0,10:51:00.073210
109079,126705,205935,196821,14980,0,10:51:00.112745
109076,126699,205939,196826,14990,0,10:51:00.152050
109079,126704,205932,196818,15000,0,10:51:00.192745
109085,126709,205937,196814,15010,0,10:51:00.222190
109077,126700,205938,196824,15020,0,10:51:00.263043
109078,126704,205936,196813,15030,0,10:51:00.302666
109072,126697,205931,196814,15040,0,10:51:00.342895
109077,126704,205933,196819,15050,0,10:51:00.382730
109073,126692,205933,196821,15060,0,10:51:00.422942
109082,126700,205936,196814,15070,0,10:51:00.463304
109076,126702,205932,196813,15080,0,10:51:00.503245
109078,126704,205934,196813,15090,0,10:51:00.543315
109070,126691,205938,196821,15100,0,10:51:00.582931
109070,126694,205929,196816,15110,0,10:51:00.623300
109073,126693,205932,196819,15120,0,10:51:00.663288
109069,126691,205935,196820,15130,0,10:51:00.703285
109073,126693,205931,196817,15140,0,10:51:00.743310
109078,126701,205940,196818,15150,0,10:51:00.782371
109067,126691,205933,196820,15160,0,10:51:00.822890
109075,126698,205932,196815,15170,0,10:51:00.863263
109070,126701,205937,196828,15180,0,10:51:00.902900
109071,126696,205936,196817,15190,0,10:51:00.943329
109075,126698,205937,196820,15200,0,10:51:00.982861
109077,126702,205937,196816,15210,0,10:51:01.022742
109083,126705,205938,196820,15220,0,10:51:01.063289
109081,126702,205945,196820,15230,0,10:51:01.102854
109083,126703,205938,196815,15240,0,10:51:01.142931
109075,126698,205939,196817,15250,0,10:51:01.183044
109080,126696,205941,196819,15260,0,10:51:01.223122
109080,126706,205945,196820,15270,0,10:51:01.263301
109078,126702,205934,196814,15280,0,10:51:01.304004
109083,126711,205930,196811,15290,0,10:51:01.342276
109072,126698,205933,196818,15300,0,10:51:01.392689
109076,126692,205941,196824,15310,0,10:51:01.423544
109073,126709,205934,196816,15320,0,10:51:01.463604
109075,126696,205932,196815,15330,0,10:51:01.503589
109081,126699,205938,196822,15340,0,10:51:01.542713
109075,126690,205934,196818,15350,0,10:51:01.582906
109079,126702,205932,196819,15360,0,10:51:01.623011
109100,126708,205930,196813,15370,0,10:51:01.662970
109096,126715,205931,196813,15380,0,10:51:01.703094
109076,126691,205931,196818,15390,0,10:51:01.743289
109083,126704,205931,196817,15400,0,10:51:01.782122
109078,126695,205933,196815,15410,0,10:51:01.823287
109078,126701,205933,196819,15420,0,10:51:01.863269
109085,126693,205935,196807,15430,0,10:51:01.903146
109078,126698,205933,196811,15440,0,10:51:01.943264
109083,126693,205934,196821,15450,0,10:51:01.982924
109084,126704,205933,196806,15460,0,10:51:02.022887
109069,126703,205938,196825,15470,0,10:51:02.063264
109068,126696,205935,196826,15480,0,10:51:02.102196
109073,126701,205935,196820,15490,0,10:51:02.143294
109075,126707,205944,196828,15500,0,10:51:02.182911
109069,126699,205935,196822,15510,0,10:51:02.223103
109080,126708,205935,196824,15520,0,10:51:02.262453
109079,126700,205933,196820,15530,0,10:51:02.302709
109072,126693,205934,196813,15540,0,10:51:02.342887
109081,126700,205928,196815,15550,0,10:51:02.382699
109086,126709,205933,196813,15560,0,10:51:02.423106
109074,126696,205933,196816,15570,0,10:51:02.463281
109075,126699,205933,196819,15580,0,10:51:02.502527
109079,126700,205931,196820,15590,0,10:51:02.542765
109076,126703,205934,196814,15600,0,10:51:02.582732
109077,126703,205933,196812,15610,0,10:51:02.622357
109075,126693,205931,196813,15620,0,10:51:02.663304
109079,126701,205922,196807,15630,0,10:51:02.702695
109079,126703,205926,196802,15640,0,10:51:02.743302
109082,126698,205933,196814,15650,0,10:51:02.782904
109077,126694,205929,196815,15660,0,10:51:02.822900
109075,126694,205927,196813,15670,0,10:51:02.863283
109084,126693,205947,196820,15680,0,10:51:02.902103
109081,126691,205924,196809,15690,0,10:51:02.943243
109079,126693,205930,196817,15700,0,10:51:02.982902
109077,126692,205933,196820,15710,0,10:51:03.023092
109074,126692,205932,196817,15720,0,10:51:03.063290
109075,126693,205928,196812,15730,0,10:51:03.102074
109079,126704,205928,196813,15740,0,10:51:03.143264
109078,126700,205930,196817,15750,0,10:51:03.182903
109072,126695,205926,196819,15760,0,10:51:03.222867
109070,126701,205930,196815,15770,0,10:51:03.263298
109052,126686,205932,196821,15780,0,10:51:03.303274
109060,126692,205939,196817,15790,0,10:51:03.343318
109066,126697,205937,196813,15800,0,10:51:03.383041
109073,126707,205942,196818,15810,0,10:51:03.422103
109067,126695,205932,196815,15820,0,10:51:03.463111
109076,126707,205931,196819,15830,0,10:51:03.502171
109078,126704,205928,196810,15840,0,10:51:03.543098
109067,126688,205926,196808,15850,0,10:51:03.583149
109088,126697,205924,196812,15860,0,10:51:03.623244
109083,126694,205921,196814,15870,0,10:51:03.662846
109077,126692,205926,196812,15880,0,10:51:03.702817
109074,126694,205923,196811,15890,0,10:51:03.743021
109073,126690,205922,196813,15900,0,10:51:03.782421
109076,126694,205902,196812,15910,0,10:51:03.822879
109071,126693,205906,196811,15920,0,10:51:03.862590
109079,126700,205923,196808,15930,0,10:51:03.902974
109072,126694,205918,196813,15940,0,10:51:03.943302
109073,126693,205919,196815,15950,0,10:51:03.982963
109073,126697,205917,196812,15960,0,10:51:04.023188
109061,126700,205924,196815,15970,0,10:51:04.062988
109076,126696,205923,196810,15980,0,10:51:04.102753
109110,126698,205928,196812,15990,0,10:51:04.143186
109092,126688,205934,196820,16000,0,10:51:04.182893
109093,126700,205924,196815,16010,0,10:51:04.222831
109087,126705,205928,196818,16020,0,10:51:04.263009
109084,126705,205930,196814,16030,0,10:51:04.302977
109073,126703,205929,196812,16040,0,10:51:04.343270
109034,126700,205927,196812,16050,0,10:51:04.382900
109032,126691,205927,196812,16060,0,10:51:04.423071
109042,126694,205926,196810,16070,0,10:51:04.462939
109027,126698,205926,196810,16080,0,10:51:04.503088
109020,126685,205925,196808,16090,0,10:51:04.543282
109040,126693,205942,196807,16100,0,10:51:04.582902
109052,126695,205938,196810,16110,0,10:51:04.623297
109054,126691,205938,196809,16120,0,10:51:04.663029
109062,126693,205940,196806,16130,0,10:51:04.702994
109065,126688,205932,196809,16140,0,10:51:04.743262
109090,126692,205931,196810,16150,0,10:51:04.782931
109115,126686,205931,196814,16160,0,10:51:04.823005
109104,126686,205928,196814,16170,0,10:51:04.863178
109135,126688,205922,196810,16180,0,10:51:04.903003
109120,126694,205923,196809,16190,0,10:51:04.943288
109094,126682,205903,196805,16200,0,10:51:04.982781
109090,126691,205908,196803,16210,0,10:51:05.022179
109078,126687,205914,196810,16220,0,10:51:05.062979
109072,126691,205920,196814,16230,0,10:51:05.103061
109054,126686,205917,196811,16240,0,10:51:05.142222
109012,126691,205920,196814,16250,0,10:51:05.182956
109024,126690,205922,196811,16260,0,10:51:05.222476
109029,126684,205923,196804,16270,0,10:51:05.262185
109048,126694,205940,196812,16280,0,10:51:05.303029
109051,126695,205933,196801,16290,0,10:51:05.342969
109056,126694,205932,196809,16300,0,10:51:05.383462
109055,126691,205934,196815,16310,0,10:51:05.422838
109071,126702,205930,196810,16320,0,10:51:05.463228
109062,126687,205928,196811,16330,0,10:51:05.502809
109072,126695,205929,196815,16340,0,10:51:05.542178
109067,126692,205922,196811,16350,0,10:51:05.583117
109069,126696,205924,196809,16360,0,10:51:05.623232
109063,126687,205922,196813,16370,0,10:51:05.662668
109060,126678,205916,196807,16380,0,10:51:05.703145
109066,126690,205918,196808,16390,0,10:51:05.743348
109064,126686,205898,196802,16400,0,10:51:05.782945
109069,126687,205906,196797,16410,0,10:51:05.823301
109071,126693,205946,196797,16420,0,10:51:05.862176
109065,126693,205947,196808,16430,0,10:51:05.902997
109065,126685,205929,196813,16440,0,10:51:05.942305
109065,126688,205939,196806,16450,0,10:51:05.982337
109064,126683,205939,196813,16460,0,10:51:06.022593
109069,126690,205929,196809,16470,0,10:51:06.062722
109068,126688,205929,196810,16480,0,10:51:06.102787
109067,126689,205916,196809,16490,0,10:51:06.142299
109073,126695,205873,196805,16500,0,10:51:06.182882
109062,126688,205878,196810,16510,0,10:51:06.223215
109057,126682,205883,196807,16520,0,10:51:06.262877
109059,126684,205868,196809,16530,0,10:51:06.302986
109070,126694,205846,196813,16540,0,10:51:06.343336
109064,126687,205860,196806,16550,0,10:51:06.382928
109067,126692,205880,196813,16560,0,10:51:06.422247
109073,126694,205900,196810,16570,0,10:51:06.462665
109077,126696,205921,196800,16580,0,10:51:06.503053
109075,126691,205924,196802,16590,0,10:51:06.533339
109068,126688,206007,196813,16600,0,10:51:06.572406
109061,126681,205976,196801,16610,0,10:51:06.623148
109069,126689,206007,196807,16620,0,10:51:06.663276
109066,126692,205988,196808,16630,0,10:51:06.703095
109063,126687,205966,196810,16640,0,10:51:06.743324
109057,126686,205944,196811,16650,0,10:51:06.782964
109065,126690,205931,196813,16660,0,10:51:06.823296
109066,126692,205921,196808,16670,0,10:51:06.863430
109059,126681,205915,196800,16680,0,10:51:06.902228
109063,126690,205891,196799,16690,0,10:51:06.943259
109066,126692,205867,196809,16700,0,10:51:06.972505
109065,126691,205872,196805,16710,0,10:51:07.013439
109065,126694,205880,196805,16720,0,10:51:07.053415
109070,126693,205893,196803,16730,0,10:51:07.093269
109067,126686,205911,196810,16740,0,10:51:07.132961
109062,126691,205905,196804,16750,0,10:51:07.172344
109061,126684,205912,196807,16760,0,10:51:07.212571
109074,126698,205914,196805,16770,0,10:51:07.253309
109068,126694,205915,196812,16780,0,10:51:07.293425
109065,126695,205911,196808,16790,0,10:51:07.332897
109065,126691,205911,196805,16800,0,10:51:07.373308
109065,126692,205913,196806,16810,0,10:51:07.412610
109061,126684,205917,196809,16820,0,10:51:07.462197
109063,126690,205920,196812,16830,0,10:51:07.492619
109062,126689,205924,196813,16840,0,10:51:07.532945
109066,126693,205915,196810,16850,0,10:51:07.572491
109063,126693,205917,196811,16860,0,10:51:07.612587
109068,126699,205913,196812,16870,0,10:51:07.653105
109060,126692,205913,196812,16880,0,10:51:07.693355
109061,126691,205916,196813,16890,0,10:51:07.732659
109059,126692,205912,196800,16900,0,10:51:07.772545
109056,126688,205908,196801,16910,0,10:51:07.812117
109059,126689,205906,196802,16920,0,10:51:07.853201
109066,126688,205908,196803,16930,0,10:51:07.892554
109066,126687,205904,196801,16940,0,10:51:07.942719
109058,126679,205913,196801,16950,0,10:51:07.973215
109069,126693,205906,196795,16960,0,10:51:08.012634
109062,126682,205904,196794,16970,0,10:51:08.052320
109059,126687,205909,196802,16980,0,10:51:08.092580
109055,126677,205910,196802,16990,0,10:51:08.132878
109060,126684,205908,196805,17000,0,10:51:08.173021
109059,126680,205912,196801,17010,0,10:51:08.212716
109058,126677,205910,196800,17020,0,10:51:08.252261
109057,126678,205910,196805,17030,0,10:51:08.293060
109062,126689,205904,196807,17040,0,10:51:08.333238
109061,126686,205907,196804,17050,0,10:51:08.372523
109067,126693,205908,196804,17060,0,10:51:08.413231
109063,126690,205904,196802,17070,0,10:51:08.452792
109069,126697,205905,196807,17080,0,10:51:08.492612
109059,126683,205906,196802,17090,0,10:51:08.533427
109069,126698,205911,196800,17100,0,10:51:08.572526
109055,126672,205914,196805,17110,0,10:51:08.612307
109061,126686,205914,196805,17120,0,10:51:08.653253
109069,126688,205905,196799,17130,0,10:51:08.692576
109059,126680,205907,196800,17140,0,10:51:08.732880
109065,126688,205905,196792,17150,0,10:51:08.772524
109058,126682,205908,196800,17160,0,10:51:08.812605
109059,126682,205903,196789,17170,0,10:51:08.853213
109055,126675,205901,196786,17180,0,10:51:08.893420
109062,126684,205904,196798,17190,0,10:51:08.932862
109063,126684,205906,196794,17200,0,10:51:08.973475
109057,126681,205909,196798,17210,0,10:51:09.012403
109056,126676,205908,196800,17220,0,10:51:09.052500
109051,126671,205905,196799,17230,0,10:51:09.093814
109050,126667,205903,196792,17240,0,10:51:09.132901
109064,126686,205910,196802,17250,0,10:51:09.173696
109052,126674,205905,196801,17260,0,10:51:09.212983
109058,126684,205904,196800,17270,0,10:51:09.252970
109057,126680,205903,196800,17280,0,10:51:09.292583
109056,126684,205904,196801,17290,0,10:51:09.332881
109058,126681,205911,196804,17300,0,10:51:09.372893
109059,126680,205909,196799,17310,0,10:51:09.412566
109057,126676,205908,196795,17320,0,10:51:09.453237
109056,126671,205906,196797,17330,0,10:51:09.493011
109051,126675,205906,196797,17340,0,10:51:09.532919
109058,126680,205901,196792,17350,0,10:51:09.573228
109063,126684,205895,196788,17360,0,10:51:09.613301
109064,126685,205904,196799,17370,0,10:51:09.653201
109066,126688,205905,196796,17380,0,10:51:09.693172
109058,126682,205908,196802,17390,0,10:51:09.732856
109058,126684,205905,196797,17400,0,10:51:09.773438
109061,126685,205899,196795,17410,0,10:51:09.812549
109056,126679,205900,196794,17420,0,10:51:09.853118
109058,126688,205906,196801,17430,0,10:51:09.893560
109055,126680,205904,196802,17440,0,10:51:09.959384
109059,126680,205896,196786,17450,0,10:51:09.977341
109063,126688,205907,196801,17460,0,10:51:10.012799
109057,126679,205897,196791,17470,0,10:51:10.053085
109060,126682,205903,196799,17480,0,10:51:10.092210
109062,126688,205905,196796,17490,0,10:51:10.132383
109062,126691,205906,196801,17500,0,10:51:10.173272
109061,126690,205901,196800,17510,0,10:51:10.213098
109056,126679,205906,196797,17520,0,10:51:10.253132
109051,126674,205903,196796,17530,0,10:51:10.292574
109058,126684,205892,196787,17540,0,10:51:10.333354
109053,126677,205903,196795,17550,0,10:51:10.372590
109057,126681,205900,196792,17560,0,10:51:10.412574
109058,126679,205899,196792,17570,0,10:51:10.453089
109059,126687,205900,196796,17580,0,10:51:10.492629
109053,126677,205904,196790,17590,0,10:51:10.532986
109052,126670,205900,196799,17600,0,10:51:10.573555
109057,126676,205904,196797,17610,0,10:51:10.613164
109055,126682,205904,196803,17620,0,10:51:10.653094
109047,126673,205897,196798,17630,0,10:51:10.692920
109050,126678,205893,196796,17640,0,10:51:10.737517
109054,126686,205892,196799,17650,0,10:51:10.772457
109048,126674,205903,196802,17660,0,10:51:10.816887
109054,126677,205906,196799,17670,0,10:51:10.853788
109052,126683,205905,196791,17680,0,10:51:10.893474
109083,126686,205892,196794,17690,0,10:51:10.933305
109067,126681,205899,196800,17700,0,10:51:10.973134
109064,126679,205899,196797,17710,0,10:51:11.012424
109068,126683,205898,196799,17720,0,10:51:11.052786
109059,126683,205892,196789,17730,0,10:51:11.092575
109049,126673,205887,196787,17740,0,10:51:11.132848
109059,126687,205888,196789,17750,0,10:51:11.172530
109037,126679,205891,196796,17760,0,10:51:11.212650
109040,126675,205895,196792,17770,0,10:51:11.253498
109035,126681,205892,196789,17780,0,10:51:11.292574
109057,126680,205890,196784,17790,0,10:51:11.332822
109066,126677,205890,196787,17800,0,10:51:11.372440
109065,126684,205882,196783,17810,0,10:51:11.412575
109068,126687,205892,196795,17820,0,10:51:11.453229
109062,126679,205889,196794,17830,0,10:51:11.492591
109059,126678,205897,196795,17840,0,10:51:11.552086
109030,126677,205892,196793,17850,0,10:51:11.587989
109023,126675,205885,196790,17860,0,10:51:11.612923
109034,126676,205891,196797,17870,0,10:51:11.652843
109012,126678,205890,196790,17880,0,10:51:11.692231
109019,126671,205895,196791,17890,0,10:51:11.733125
109031,126672,205895,196789,17900,0,10:51:11.772994
109037,126677,205891,196787,17910,0,10:51:11.812069
109047,126684,205894,196792,17920,0,10:51:11.853129
109047,126675,205906,196797,17930,0,10:51:11.892469
109048,126678,205892,196795,17940,0,10:51:11.943004
109096,126684,205892,196785,17950,0,10:51:11.972137
109100,126682,205891,196787,17960,0,10:51:12.012621
109091,126679,205896,196791,17970,0,10:51:12.053485
109121,126685,205893,196791,17980,0,10:51:12.092757
109103,126679,205890,196792,17990,0,10:51:12.132811
109093,126684,205889,196788,18000,0,10:51:12.172517
109078,126674,205887,196787,18010,0,10:51:12.213337
109074,126674,205872,196786,18020,0,10:51:12.253295
109061,126676,205882,196786,18030,0,10:51:12.293333
109050,126679,205892,196794,18040,0,10:51:12.332850
109007,126674,205892,196798,18050,0,10:51:12.372311
109000,126672,205896,196794,18060,0,10:51:12.413311
109007,126677,205892,196790,18070,0,10:51:12.452839
109011,126669,205900,196791,18080,0,10:51:12.493346
109029,126670,205910,196793,18090,0,10:51:12.532796
109034,126671,205906,196796,18100,0,10:51:12.573072
109040,126671,205905,196795,18110,0,10:51:12.613334
109052,126681,205893,196782,18120,0,10:51:12.652125
109055,126680,205900,196797,18130,0,10:51:12.693344
109049,126672,205891,196792,18140,0,10:51:12.732864
109054,126679,205890,196796,18150,0,10:51:12.773277
109049,126677,205888,196789,18160,0,10:51:12.813350
109052,126679,205874,196792,18170,0,10:51:12.852498
109044,126673,205875,196792,18180,0,10:51:12.892356
109048,126675,205915,196797,18190,0,10:51:12.932760
109048,126676,205924,196798,18200,0,10:51:12.972652
109054,126684,205916,196799,18210,0,10:51:13.012400
109051,126674,205912,196799,18220,0,10:51:13.052284
109051,126669,205898,196792,18230,0,10:51:13.092984
109053,126682,205879,196786,18240,0,10:51:13.132709
109046,126667,205846,196791,18250,0,10:51:13.173296
109057,126683,205854,196783,18260,0,10:51:13.213347
109054,126682,205835,196785,18270,0,10:51:13.253032
109048,126676,205820,196783,18280,0,10:51:13.293181
109047,126674,205846,196790,18290,0,10:51:13.332810
109051,126674,205863,196776,18300,0,10:51:13.371982
109055,126677,205882,196782,18310,0,10:51:13.413334
109048,126672,205885,196784,18320,0,10:51:13.452964
109044,126662,205930,196790,18330,0,10:51:13.493349
109050,126671,205966,196782,18340,0,10:51:13.532708
109053,126681,205962,196781,18350,0,10:51:13.573339
109050,126669,205957,196779,18360,0,10:51:13.613345
109050,126672,205934,196787,18370,0,10:51:13.653087
109047,126673,205924,196790,18380,0,10:51:13.692734
109045,126667,205899,196780,18390,0,10:51:13.732781
109043,126665,205892,196779,18400,0,10:51:13.772804
109046,126672,205875,196777,18410,0,10:51:13.813344
109040,126664,205825,196778,18420,0,10:51:13.852924
109041,126662,205841,196787,18430,0,10:51:13.893228
109041,126658,205847,196780,18440,0,10:51:13.933237
109039,126659,205861,196782,18450,0,10:51:13.972306
109052,126676,205870,196780,18460,0,10:51:14.013385
109045,126668,205877,196781,18470,0,10:51:14.052899
109045,126667,205881,196781,18480,0,10:51:14.092185
109048,126675,205883,196782,18490,0,10:51:14.132764
109046,126669,205889,196788,18500,0,10:51:14.173400
109043,126670,205887,196777,18510,0,10:51:14.212687
109043,126667,205885,196784,18520,0,10:51:14.252395
109049,126673,205881,196781,18530,0,10:51:14.292184
109044,126671,205887,196785,18540,0,10:51:14.332707
109045,126672,205888,196783,18550,0,10:51:14.371976
109047,126670,205887,196782,18560,0,10:51:14.413452
109045,126675,205884,196788,18570,0,10:51:14.453085
109049,126674,205882,196786,18580,0,10:51:14.493327
109046,126676,205880,196785,18590,0,10:51:14.532656
109056,126680,205882,196782,18600,0,10:51:14.573268
109055,126680,205885,196785,18610,0,10:51:14.612437
109045,126669,205881,196781,18620,0,10:51:14.652875
109043,126670,205880,196781,18630,0,10:51:14.692053
109048,126680,205882,196783,18640,0,10:51:14.733493
109046,126679,205878,196777,18650,0,10:51:14.773216
109046,126674,205882,196777,18660,0,10:51:14.812821
109043,126661,205885,196782,18670,0,10:51:14.852527
109039,126661,205888,196783,18680,0,10:51:14.892523
109049,126673,205886,196779,18690,0,10:51:14.932966
109047,126666,205884,196777,18700,0,10:51:14.973185
109051,126669,205887,196785,18710,0,10:51:15.013349
109054,126675,205884,196781,18720,0,10:51:15.053160
109046,126664,205881,196777,18730,0,10:51:15.092706
109051,126670,205887,196784,18740,0,10:51:15.132882
109049,126667,205886,196782,18750,0,10:51:15.172193
109048,126671,205881,196781,18760,0,10:51:15.212191
109052,126673,205884,196777,18770,0,10:51:15.252316
109048,126670,205882,196784,18780,0,10:51:15.292916
109048,126673,205879,196782,18790,0,10:51:15.332494
109050,126671,205877,196780,18800,0,10:51:15.372999
109047,126674,205876,196780,18810,0,10:51:15.412470
109052,126673,205882,196782,18820,0,10:51:15.452789
109043,126665,205876,196778,18830,0,10:51:15.492729
109044,126665,205883,196784,18840,0,10:51:15.532704
109054,126683,205877,196782,18850,0,10:51:15.573283
109046,126671,205881,196779,18860,0,10:51:15.612194
109043,126670,205880,196781,18870,0,10:51:15.652642
109043,126665,205880,196781,18880,0,10:51:15.692455
109045,126670,205880,196776,18890,0,10:51:15.732791
109048,126671,205884,196780,18900,0,10:51:15.772804
109052,126675,205876,196774,18910,0,10:51:15.812938
109043,126671,205877,196779,18920,0,10:51:15.852391
109046,126672,205881,196778,18930,0,10:51:15.892845
109042,126672,205875,196778,18940,0,10:51:15.932706
109044,126676,205876,196777,18950,0,10:51:15.973312
109048,126675,205878,196781,18960,0,10:51:16.013447
109050,126668,205877,196777,18970,0,10:51:16.052596
109049,126665,205869,196768,18980,0,10:51:16.093183
109053,126668,205876,196776,18990,0,10:51:16.132589
109054,126675,205875,196782,19000,0,10:51:16.173317
109047,126667,205879,196783,19010,0,10:51:16.213357
109045,126663,205875,196779,19020,0,10:51:16.253085
109045,126663,205875,196780,19030,0,10:51:16.293264
109048,126668,205877,196778,19040,0,10:51:16.332552
109039,126662,205874,196778,19050,0,10:51:16.372271
109041,126660,205869,196768,19060,0,10:51:16.413278
109032,126663,205879,196779,19070,0,10:51:16.452347
109027,126657,205877,196779,19080,0,10:51:16.493306
109057,126666,205879,196780,19090,0,10:51:16.533769
109060,126674,205879,196777,19100,0,10:51:16.573199
109053,126668,205881,196784,19110,0,10:51:16.622897
109040,126664,205874,196777,19120,0,10:51:16.653094
109046,126670,205875,196782,19130,0,10:51:16.694044
109042,126667,205859,196774,19140,0,10:51:16.733028
109041,126666,205866,196774,19150,0,10:51:16.773914
109043,126666,205868,196776,19160,0,10:51:16.813428
109045,126668,205879,196778,19170,0,10:51:16.852771
109032,126662,205877,196777,19180,0,10:51:16.902937
109042,126666,205874,196778,19190,0,10:51:16.942933
109044,126666,205875,196775,19200,0,10:51:16.972179
109050,126674,205880,196780,19210,0,10:51:17.013321
109050,126675,205879,196778,19220,0,10:51:17.062952
109045,126670,205875,196779,19230,0,10:51:17.092995
109062,126669,205880,196777,19240,0,10:51:17.132687
109050,126664,205877,196778,19250,0,10:51:17.172185
109056,126672,205873,196774,19260,0,10:51:17.213303
109053,126669,205876,196777,19270,0,10:51:17.252454
109049,126675,205880,196774,19280,0,10:51:17.293330
109049,126672,205875,196774,19290,0,10:51:17.332867
109053,126673,205876,196765,19300,0,10:51:17.372871
109041,126664,205877,196770,19310,0,10:51:17.412676
109041,126665,205877,196778,19320,0,10:51:17.452319
109032,126669,205875,196773,19330,0,10:51:17.492543
109032,126665,205876,196771,19340,0,10:51:17.532903
109033,126661,205878,196763,19350,0,10:51:17.572690
109033,126664,205881,196772,19360,0,10:51:17.612052
109043,126670,205875,196768,19370,0,10:51:17.652923
109040,126661,205877,196775,19380,0,10:51:17.692731
109037,126658,205874,196768,19390,0,10:51:17.732740
109054,126658,205872,196766,19400,0,10:51:17.773308
109055,126669,205879,196777,19410,0,10:51:17.813319
109040,126657,205871,196771,19420,0,10:51:17.852052
109041,126662,205873,196767,19430,0,10:51:17.892929
109036,126660,205859,196774,19440,0,10:51:17.932576
109038,126662,205871,196768,19450,0,10:51:17.972885
109041,126665,205869,196777,19460,0,10:51:18.013108
109026,126663,205878,196785,19470,0,10:51:18.053024
109054,126673,205878,196774,19480,0,10:51:18.122348
109070,126660,205869,196771,19490,0,10:51:18.133319
109058,126657,205883,196777,19500,0,10:51:18.173212
109060,126665,205876,196773,19510,0,10:51:18.212283
109059,126669,205873,196776,19520,0,10:51:18.255168
109049,126669,205874,196772,19530,0,10:51:18.292069
109043,126663,205870,196769,19540,0,10:51:18.332776
109033,126658,205877,196777,19550,0,10:51:18.372230
108987,126654,205872,196771,19560,0,10:51:18.411896
109013,126662,205872,196773,19570,0,10:51:18.452650
109006,126666,205868,196769,19580,0,10:51:18.493213
108990,126663,205865,196762,19590,0,10:51:18.533669
108983,126655,205873,196768,19600,0,10:51:18.573351
109012,126662,205893,196765,19610,0,10:51:18.613328
109022,126660,205883,196765,19620,0,10:51:18.652189
109032,126658,205885,196770,19630,0,10:51:18.693298
109037,126661,205881,196773,19640,0,10:51:18.732806
109058,126666,205877,196773,19650,0,10:51:18.773347
109094,126666,205876,196777,19660,0,10:51:18.813021
109094,126673,205877,196780,19670,0,10:51:18.852392
109090,126661,205870,196777,19680,0,10:51:18.893350
109098,126670,205878,196781,19690,0,10:51:18.932766
109073,126660,205853,196770,19700,0,10:51:18.973719
109061,126668,205861,196769,19710,0,10:51:19.012914
109053,126662,205860,196770,19720,0,10:51:19.062904
109047,126668,205856,196767,19730,0,10:51:19.102870
109040,126661,205867,196767,19740,0,10:51:19.142950
108995,126662,205862,196772,19750,0,10:51:19.172617
108989,126656,205865,196774,19760,0,10:51:19.212945
109003,126659,205872,196772,19770,0,10:51:19.253326
109021,126666,205882,196772,19780,0,10:51:19.293298
109027,126658,205877,196771,19790,0,10:51:19.332712
109032,126655,205878,196776,19800,0,10:51:19.373353
109042,126662,205872,196771,19810,0,10:51:19.413606
109033,126657,205875,196767,19820,0,10:51:19.452185
109038,126661,205873,196775,19830,0,10:51:19.494056
109038,126658,205863,196771,19840,0,10:51:19.532774
109039,126658,205868,196769,19850,0,10:51:19.572407
109046,126664,205867,196766,19860,0,10:51:19.613276
109034,126657,205849,196766,19870,0,10:51:19.653286
109035,126655,205886,196767,19880,0,10:51:19.692325
109041,126665,205886,196758,19890,0,10:51:19.732737
109039,126659,205886,196762,19900,0,10:51:19.772629
109035,126656,205882,196762,19910,0,10:51:19.812601
109044,126665,205877,196758,19920,0,10:51:19.852608
109034,126655,205868,196754,19930,0,10:51:19.893046
109041,126665,205857,196763,19940,0,10:51:19.932708
109037,126652,205819,196767,19950,0,10:51:19.973319
109031,126654,205836,196764,19960,0,10:51:20.012865
109036,126656,205799,196761,19970,0,10:51:20.052303
109036,126659,205809,196766,19980,0,10:51:20.092833
109035,126655,205821,196759,19990,0,10:51:20.133618
109038,126662,205845,196764,20000,0,10:51:20.172966
109028,126652,205857,196766,20010,0,10:51:20.214694
109030,126652,205855,196765,20020,0,10:51:20.253486
109035,126658,205887,196771,20030,0,10:51:20.293295
109036,126660,205948,196772,20040,0,10:51:20.332720
109037,126659,205941,196775,20050,0,10:51:20.383131
109031,126655,205937,196776,20060,0,10:51:20.412697
109038,126656,205918,196773,20070,0,10:51:20.452976
109034,126653,205893,196768,20080,0,10:51:20.492724
109032,126653,205877,196767,20090,0,10:51:20.532990
109032,126653,205851,196766,20100,0,10:51:20.582945
109039,126661,205804,196763,20110,0,10:51:20.622720
109030,126653,205825,196767,20120,0,10:51:20.653024
109031,126651,205836,196763,20130,0,10:51:20.692299
109035,126658,205849,196762,20140,0,10:51:20.733004
109043,126667,205853,196760,20150,0,10:51:20.772319
109034,126661,205862,196765,20160,0,10:51:20.812926
109032,126660,205860,196762,20170,0,10:51:20.852817
109036,126660,205861,196758,20180,0,10:51:20.892946
109028,126650,205867,196759,20190,0,10:51:20.932629
109033,126651,205858,196751,20200,0,10:51:20.972236
109028,126646,205861,196757,20210,0,10:51:21.013313
109027,126648,205861,196761,20220,0,10:51:21.053285
109036,126663,205855,196760,20230,0,10:51:21.093332
109032,126654,205855,196754,20240,0,10:51:21.132757
109038,126663,205858,196754,20250,0,10:51:21.172411
109024,126640,205858,196756,20260,0,10:51:21.213335
109034,126658,205858,196758,20270,0,10:51:21.253288
109039,126662,205858,196755,20280,0,10:51:21.293344
109036,126660,205857,196757,20290,0,10:51:21.332991
109032,126655,205854,196760,20300,0,10:51:21.372448
109038,126657,205856,196765,20310,0,10:51:21.413311
109028,126650,205858,196763,20320,0,10:51:21.453299
109027,126650,205861,196765,20330,0,10:51:21.493300
109027,126650,205855,196763,20340,0,10:51:21.532513
109037,126661,205858,196765,20350,0,10:51:21.572845
109032,126660,205861,196770,20360,0,10:51:21.612898
109032,126657,205861,196766,20370,0,10:51:21.652962
109030,126651,205861,196764,20380,0,10:51:21.692792
109035,126652,205863,196763,20390,0,10:51:21.733563
109035,126655,205843,196756,20400,0,10:51:21.772093
109030,126651,205854,196762,20410,0,10:51:21.812921
109040,126655,205857,196764,20420,0,10:51:21.852889
109036,126654,205858,196758,20430,0,10:51:21.893178
109029,126653,205859,196759,20440,0,10:51:21.933008
109027,126649,205860,196765,20450,0,10:51:21.972007
109027,126643,205856,196756,20460,0,10:51:22.013011
109030,126655,205851,196753,20470,0,10:51:22.052425
109036,126663,205854,196758,20480,0,10:51:22.103013
109028,126653,205857,196754,20490,0,10:51:22.132298
109027,126654,205848,196748,20500,0,10:51:22.173059
109037,126662,205855,196761,20510,0,10:51:22.212957
109031,126656,205852,196753,20520,0,10:51:22.253069
109027,126651,205853,196749,20530,0,10:51:22.293064
109035,126658,205856,196751,20540,0,10:51:22.333011
109024,126647,205858,196761,20550,0,10:51:22.372662
109035,126659,205857,196762,20560,0,10:51:22.412185
109027,126651,205852,196758,20570,0,10:51:22.452817
109030,126654,205856,196760,20580,0,10:51:22.493269
109030,126659,205850,196756,20590,0,10:51:22.532990
109025,126651,205850,196750,20600,0,10:51:22.573014
109024,126648,205855,196758,20610,0,10:51:22.612157
109035,126662,205856,196755,20620,0,10:51:22.652164
109029,126652,205853,196759,20630,0,10:51:22.692202
109046,126655,205849,196753,20640,0,10:51:22.733597
109035,126648,205848,196745,20650,0,10:51:22.772330
109036,126654,205851,196761,20660,0,10:51:22.812115
109032,126647,205850,196751,20670,0,10:51:22.852873
109026,126643,205855,196757,20680,0,10:51:22.892082
109028,126650,205850,196752,20690,0,10:51:22.932813
109027,126642,205853,196756,20700,0,10:51:22.973362
109023,126644,205855,196755,20710,0,10:51:23.013192
109031,126654,205853,196759,20720,0,10:51:23.052876
109026,126657,205853,196755,20730,0,10:51:23.093286
109018,126647,205845,196753,20740,0,10:51:23.133203
109020,126659,205851,196753,20750,0,10:51:23.173232
109014,126651,205843,196751,20760,0,10:51:23.212196
109026,126660,205849,196753,20770,0,10:51:23.252205
109026,126657,205848,196756,20780,0,10:51:23.292316
109027,126660,205847,196745,20790,0,10:51:23.332566
109027,126656,205852,196756,20800,0,10:51:23.372199
109033,126658,205854,196765,20810,0,10:51:23.412199
109034,126658,205852,196752,20820,0,10:51:23.452110
109031,126650,205853,196753,20830,0,10:51:23.492598
109032,126653,205844,196746,20840,0,10:51:23.533564
109032,126661,205848,196748,20850,0,10:51:23.573324
109033,126660,205851,196755,20860,0,10:51:23.612776
109032,126657,205847,196747,20870,0,10:51:23.652348
109018,126642,205854,196757,20880,0,10:51:23.693325
109026,126648,205849,196751,20890,0,10:51:23.732654
109027,126652,205847,196751,20900,0,10:51:23.772084
109022,126645,205850,196754,20910,0,10:51:23.813175
109022,126642,205851,196751,20920,0,10:51:23.853095
109032,126650,205875,196764,20930,0,10:51:23.892042
109023,126650,205848,196755,20940,0,10:51:23.933048
109049,126655,205851,196755,20950,0,10:51:23.972435
109039,126655,205853,196760,20960,0,10:51:24.003488
109030,126656,205853,196758,20970,0,10:51:24.043652
109028,126658,205854,196761,20980,0,10:51:24.082639
109032,126660,205857,196755,20990,0,10:51:24.122509
109031,126653,205851,196757,21000,0,10:51:24.177231
109033,126662,205850,196757,21010,0,10:51:24.222638
109030,126652,205872,196750,21020,0,10:51:24.257610
109028,126656,205865,196757,21030,0,10:51:24.307058
109026,126656,205851,196763,21040,0,10:51:24.332915
109003,126646,205840,196750,21050,0,10:51:24.375108
109017,126650,205850,196746,21060,0,10:51:24.413010
109026,126659,205852,196748,21070,0,10:51:24.462906
109024,126643,205848,196747,21080,0,10:51:24.502298
109036,126650,205853,196753,21090,0,10:51:24.542105
109028,126652,205856,196752,21100,0,10:51:24.592223
109028,126647,205853,196749,21110,0,10:51:24.632485
109072,126651,205847,196747,21120,0,10:51:24.673370
109067,126651,205851,196755,21130,0,10:51:24.713285
109051,126644,205850,196751,21140,0,10:51:24.722629
109047,126653,205846,196749,21150,0,10:51:24.763011
109031,126652,205845,196751,21160,0,10:51:24.802337
109023,126645,205846,196750,21170,0,10:51:24.842433
109030,126648,205847,196749,21180,0,10:51:24.882732
109032,126654,205824,196743,21190,0,10:51:24.922899
108986,126653,205846,196750,21200,0,10:51:24.962557
108979,126645,205847,196748,21210,0,10:51:25.003728
108992,126647,205848,196751,21220,0,10:51:25.043356
109000,126646,205840,196762,21230,0,10:51:25.083674
109060,126665,205850,196754,21240,0,10:51:25.123271
109042,126651,205854,196755,21250,0,10:51:25.163606
109030,126644,205855,196757,21260,0,10:51:25.202504
109030,126652,205848,196757,21270,0,10:51:25.243849
109026,126647,205830,196752,21280,0,10:51:25.283921
108993,126655,205829,196747,21290,0,10:51:25.322581
109003,126653,205839,196747,21300,0,10:51:25.362547
109009,126652,205848,196750,21310,0,10:51:25.413357
108968,126643,205846,196751,21320,0,10:51:25.443084
108988,126659,205839,196743,21330,0,10:51:25.483707
108987,126640,205838,196750,21340,0,10:51:25.523227
109006,126654,205840,196748,21350,0,10:51:25.564056
109009,126652,205834,196755,21360,0,10:51:25.603801
109012,126652,205831,196747,21370,0,10:51:25.642605
109017,126643,205838,196746,21380,0,10:51:25.693196
109023,126650,205847,196748,21390,0,10:51:25.722897
109037,126647,205839,196744,21400,0,10:51:25.772801
109084,126656,205837,196743,21410,0,10:51:25.813118
109069,126653,205845,196753,21420,0,10:51:25.853241
109054,126644,205842,196748,21430,0,10:51:25.893356
109079,126650,205841,196747,21440,0,10:51:25.932599
109059,126651,205836,196748,21450,0,10:51:25.974272
109048,126648,205828,196752,21460,0,10:51:26.022668
109024,126648,205831,196746,21470,0,10:51:26.052987
109022,126650,205823,196745,21480,0,10:51:26.103169
109010,126639,205836,196744,21490,0,10:51:26.122977
108966,126648,205837,196750,21500,0,10:51:26.173120
108984,126645,205867,196748,21510,0,10:51:26.202919
109002,126651,205894,196757,21520,0,10:51:26.242579
109011,126653,205874,196757,21530,0,10:51:26.282622
109014,126643,205861,196750,21540,0,10:51:26.322516
109026,126652,205857,196757,21550,0,10:51:26.362548
109028,126652,205849,196754,21560,0,10:51:26.403339
109019,126648,205846,196755,21570,0,10:51:26.442945
109026,126654,205846,196756,21580,0,10:51:26.483522
109020,126654,205785,196757,21590,0,10:51:26.522565
109028,126661,205765,196751,21600,0,10:51:26.563505
109022,126646,205790,196749,21610,0,10:51:26.602442
109023,126648,205847,196750,21620,0,10:51:26.643075
109022,126645,205849,196744,21630,0,10:51:26.682974
109022,126644,205853,196744,21640,0,10:51:26.722801
109023,126646,205848,196750,21650,0,10:51:26.762220
109030,126655,205848,196748,21660,0,10:51:26.802737
109022,126653,205846,196749,21670,0,10:51:26.853321
109020,126649,205803,196739,21680,0,10:51:26.883842
109019,126638,205802,196743,21690,0,10:51:26.922336
109022,126645,205829,196747,21700,0,10:51:26.963578
109017,126643,205759,196744,21710,0,10:51:27.002273
109027,126649,205808,196744,21720,0,10:51:27.043058
109022,126646,205816,196741,21730,0,10:51:27.082558
109019,126648,205825,196746,21740,0,10:51:27.123188
109022,126647,205833,196743,21750,0,10:51:27.163414
109021,126648,205864,196747,21760,0,10:51:27.202320
109023,126650,205917,196748,21770,0,10:51:27.242563
109023,126648,205893,196750,21780,0,10:51:27.282654
109018,126641,205905,196753,21790,0,10:51:27.322574
109020,126649,205887,196753,21800,0,10:51:27.363474
109017,126648,205865,196750,21810,0,10:51:27.412815
109010,126633,205849,196746,21820,0,10:51:27.452096
109027,126650,205846,196750,21830,0,10:51:27.493365
109017,126647,205800,196744,21840,0,10:51:27.523433
109024,126653,205788,196740,21850,0,10:51:27.563025
109013,126641,205804,196748,21860,0,10:51:27.603151
109019,126646,205817,196743,21870,0,10:51:27.642522
109015,126637,205826,196749,21880,0,10:51:27.682964
109023,126652,205824,196742,21890,0,10:51:27.722343
109025,126657,205832,196746,21900,0,10:51:27.762792
109017,126640,205832,196743,21910,0,10:51:27.803224
109019,126648,205833,196744,21920,0,10:51:27.842804
109020,126644,205832,196745,21930,0,10:51:27.882944
109021,126643,205837,196742,21940,0,10:51:27.923131
109010,126644,205839,196748,21950,0,10:51:27.962529
109020,126649,205835,196741,21960,0,10:51:28.002293
109016,126646,205835,196744,21970,0,10:51:28.043417
109017,126644,205836,196741,21980,0,10:51:28.082641
109016,126643,205835,196746,21990,0,10:51:28.123219
109015,126645,205836,196745,22000,0,10:51:28.163474
109015,126643,205831,196745,22010,0,10:51:28.202283
109022,126645,205834,196746,22020,0,10:51:28.242537
109026,126655,205830,196739,22030,0,10:51:28.282604
109017,126639,205837,196744,22040,0,10:51:28.323245
109021,126642,205836,196745,22050,0,10:51:28.363174
109019,126647,205833,196742,22060,0,10:51:28.403322
109019,126642,205838,196747,22070,0,10:51:28.443167
109023,126652,205835,196741,22080,0,10:51:28.483611
109022,126655,205834,196749,22090,0,10:51:28.522911
109018,126647,205837,196747,22100,0,10:51:28.562816
109017,126644,205837,196744,22110,0,10:51:28.603453
109012,126637,205839,196747,22120,0,10:51:28.642639
109016,126645,205836,196741,22130,0,10:51:28.683071
109020,126642,205839,196746,22140,0,10:51:28.722685
109014,126643,205831,196740,22150,0,10:51:28.762910
109020,126645,205835,196740,22160,0,10:51:28.803254
109023,126646,205836,196744,22170,0,10:51:28.842598
109018,126648,205831,196742,22180,0,10:51:28.892452
109019,126646,205834,196743,22190,0,10:51:28.922437
109019,126649,205836,196745,22200,0,10:51:28.962979
109017,126645,205834,196748,22210,0,10:51:29.002943
109020,126642,205837,196750,22220,0,10:51:29.052645
109015,126647,205844,196756,22230,0,10:51:29.082362
109019,126644,205834,196749,22240,0,10:51:29.122933
109021,126648,205834,196750,22250,0,10:51:29.162499
109021,126647,205837,196753,22260,0,10:51:29.203180
109006,126634,205838,196743,22270,0,10:51:29.242380
109016,126643,205832,196743,22280,0,10:51:29.282634
109027,126650,205838,196746,22290,0,10:51:29.322609
109022,126652,205835,196739,22300,0,10:51:29.363407
109026,126654,205840,196744,22310,0,10:51:29.409209
109021,126647,205833,196737,22320,0,10:51:29.442421
109017,126642,205835,196741,22330,0,10:51:29.482587
109022,126645,205836,196743,22340,0,10:51:29.522412
109019,126642,205830,196739,22350,0,10:51:29.563437
109021,126644,205835,196745,22360,0,10:51:29.602317
109021,126646,205830,196739,22370,0,10:51:29.642504
109014,126633,205833,196738,22380,0,10:51:29.682889
109015,126639,205837,196746,22390,0,10:51:29.723146
109016,126641,205836,196741,22400,0,10:51:29.762052
109019,126644,205840,196744,22410,0,10:51:29.802743
109024,126634,205839,196752,22420,0,10:51:29.843267
109012,126642,205830,196741,22430,0,10:51:29.882626
109016,126644,205833,196744,22440,0,10:51:29.923124
109035,126655,205834,196740,22450,0,10:51:29.963306
109018,126642,205838,196746,22460,0,10:51:30.003230
109017,126635,205835,196742,22470,0,10:51:30.042189
109025,126649,205831,196730,22480,0,10:51:30.082624
109022,126643,205828,196731,22490,0,10:51:30.123265
109015,126636,205832,196733,22500,0,10:51:30.163251
109018,126643,205824,196730,22510,0,10:51:30.203317
109019,126644,205830,196735,22520,0,10:51:30.243118
109016,126641,205829,196728,22530,0,10:51:30.283622
109005,126642,205828,196731,22540,0,10:51:30.322081
109010,126638,205833,196734,22550,0,10:51:30.363350
109015,126645,205830,196731,22560,0,10:51:30.402973
109020,126648,205824,196734,22570,0,10:51:30.443314
109008,126629,205833,196739,22580,0,10:51:30.482975
109013,126634,205827,196740,22590,0,10:51:30.522456
109019,126639,205826,196741,22600,0,10:51:30.563308
109020,126643,205829,196738,22610,0,10:51:30.602796
109015,126637,205826,196733,22620,0,10:51:30.643350
109004,126632,205828,196738,22630,0,10:51:30.682602
109017,126646,205827,196738,22640,0,10:51:30.723289
109020,126644,205829,196737,22650,0,10:51:30.762548
109017,126643,205821,196729,22660,0,10:51:30.802944
109014,126639,205826,196734,22670,0,10:51:30.843008
109026,126642,205827,196736,22680,0,10:51:30.882410
109015,126638,205826,196738,22690,0,10:51:30.923559
109015,126641,205831,196741,22700,0,10:51:30.963180
109028,126640,205832,196740,22710,0,10:51:31.002380
109022,126637,205830,196737,22720,0,10:51:31.043051
109017,126636,205828,196738,22730,0,10:51:31.082475
109021,126646,205826,196736,22740,0,10:51:31.122846
109015,126632,205829,196737,22750,0,10:51:31.162602
109017,126639,205828,196739,22760,0,10:51:31.202917
109017,126644,205827,196741,22770,0,10:51:31.242755
109021,126641,205829,196742,22780,0,10:51:31.283035
109010,126633,205826,196738,22790,0,10:51:31.322950
109009,126643,205826,196741,22800,0,10:51:31.363289
109022,126645,205840,196744,22810,0,10:51:31.402466
109005,126644,205851,196744,22820,0,10:51:31.442689
109006,126637,205844,196739,22830,0,10:51:31.482596
109004,126638,205842,196744,22840,0,10:51:31.532563
109007,126630,205834,196736,22850,0,10:51:31.563209
109008,126631,205827,196735,22860,0,10:51:31.603182
109010,126632,205829,196741,22870,0,10:51:31.642455
109028,126640,205832,196737,22880,0,10:51:31.682274
109030,126637,205825,196736,22890,0,10:51:31.723198
109020,126631,205821,196733,22900,0,10:51:31.763210
109019,126637,205822,196731,22910,0,10:51:31.803109
109012,126628,205821,196737,22920,0,10:51:31.843097
109017,126633,205831,196740,22930,0,10:51:31.893103
109017,126634,205814,196736,22940,0,10:51:31.932637
109018,126637,205816,196737,22950,0,10:51:31.963142
109014,126634,205820,196736,22960,0,10:51:32.003251
109017,126637,205815,196730,22970,0,10:51:32.043132
108997,126633,205822,196727,22980,0,10:51:32.082578
109013,126636,205823,196729,22990,0,10:51:32.123014
109053,126639,205829,196735,23000,0,10:51:32.162267
109042,126636,205829,196734,23010,0,10:51:32.202542
109032,126635,205830,196732,23020,0,10:51:32.242984
109034,126644,205828,196733,23030,0,10:51:32.282590
109024,126639,205827,196740,23040,0,10:51:32.323376
109013,126634,205822,196735,23050,0,10:51:32.363193
108993,126639,205827,196738,23060,0,10:51:32.403186
108979,126636,205826,196736,23070,0,10:51:32.442851
108975,126636,205823,196728,23080,0,10:51:32.482589
108954,126633,205823,196733,23090,0,10:51:32.523084
108973,126638,205825,196729,23100,0,10:51:32.562185
108984,126632,205844,196726,23110,0,10:51:32.603082
108994,126634,205836,196729,23120,0,10:51:32.643136
109005,126638,205832,196727,23130,0,10:51:32.682583
109010,126636,205830,196727,23140,0,10:51:32.723477
109035,126627,205829,196735,23150,0,10:51:32.763144
109055,126628,205826,196734,23160,0,10:51:32.803143
109059,126624,205822,196732,23170,0,10:51:32.843166
109075,126641,205822,196734,23180,0,10:51:32.882575
109057,126641,205822,196734,23190,0,10:51:32.923155
109041,126636,205812,196743,23200,0,10:51:32.963177
109031,126640,205814,196741,23210,0,10:51:33.002759
109023,126638,205820,196742,23220,0,10:51:33.043152
109016,126636,205822,196740,23230,0,10:51:33.082291
108978,126629,205826,196740,23240,0,10:51:33.123147
108948,126630,205825,196742,23250,0,10:51:33.163176
108962,126630,205822,196731,23260,0,10:51:33.203196
108969,126629,205824,196736,23270,0,10:51:33.243177
108984,126635,205837,196733,23280,0,10:51:33.282457
108994,126637,205831,196737,23290,0,10:51:33.323145
109004,126640,205833,196733,23300,0,10:51:33.363005
109009,126642,205832,196739,23310,0,10:51:33.402288
109010,126634,205831,196738,23320,0,10:51:33.443022
109014,126635,205826,196732,23330,0,10:51:33.482787
109015,126639,205829,196739,23340,0,10:51:33.522306
109017,126642,205825,196734,23350,0,10:51:33.562404
109014,126637,205827,196735,23360,0,10:51:33.602785
109010,126637,205821,196730,23370,0,10:51:33.643206
109011,126640,205811,196740,23380,0,10:51:33.682425
109011,126640,205837,196734,23390,0,10:51:33.722600
109010,126642,205860,196735,23400,0,10:51:33.763205
109020,126647,205846,196728,23410,0,10:51:33.803110
109013,126639,205839,196739,23420,0,10:51:33.843267
109009,126636,205833,196735,23430,0,10:51:33.882641
109016,126634,205827,196726,23440,0,10:51:33.922959
109015,126632,205831,196731,23450,0,10:51:33.963233
109018,126641,205792,196732,23460,0,10:51:34.003122
109018,126640,205790,196735,23470,0,10:51:34.042992
109005,126625,205795,196734,23480,0,10:51:34.082572
109012,126633,205750,196735,23490,0,10:51:34.123223
109006,126626,205772,196728,23500,0,10:51:34.163204
109003,126621,205795,196736,23510,0,10:51:34.202788
109004,126626,205801,196735,23520,0,10:51:34.243201
109012,126636,205811,196737,23530,0,10:51:34.282562
109008,126634,205821,196736,23540,0,10:51:34.323234
109008,126634,205815,196725,23550,0,10:51:34.363235
109007,126631,205851,196727,23560,0,10:51:34.402120
109011,126631,205908,196737,23570,0,10:51:34.442218
109013,126642,205889,196731,23580,0,10:51:34.482862
109010,126636,205900,196728,23590,0,10:51:34.523198
109009,126635,205881,196734,23600,0,10:51:34.562565
109007,126632,205862,196735,23610,0,10:51:34.602874
109003,126624,205844,196726,23620,0,10:51:34.643120
109010,126639,205831,196730,23630,0,10:51:34.682540
109012,126639,205821,196727,23640,0,10:51:34.723233
109012,126638,205815,196724,23650,0,10:51:34.763134
109005,126630,205792,196732,23660,0,10:51:34.802470
109012,126636,205761,196727,23670,0,10:51:34.842965
109007,126632,205770,196730,23680,0,10:51:34.882521
109002,126625,205774,196723,23690,0,10:51:34.923185
109004,126628,205796,196735,23700,0,10:51:34.963201
109009,126635,205801,196733,23710,0,10:51:35.002883
109000,126625,205809,196728,23720,0,10:51:35.043171
109001,126625,205814,196731,23730,0,10:51:35.082418
109007,126635,205819,196734,23740,0,10:51:35.123163
109009,126638,205820,196735,23750,0,10:51:35.163202
109004,126631,205820,196731,23760,0,10:51:35.203102
109004,126627,205817,196728,23770,0,10:51:35.241796
109008,126635,205818,196727,23780,0,10:51:35.282275
109013,126637,205819,196729,23790,0,10:51:35.322555
109001,126622,205815,196725,23800,0,10:51:35.362667
109007,126634,205818,196726,23810,0,10:51:35.402353
109003,126633,205812,196723,23820,0,10:51:35.442648
