PPG_IR1,PPG_IR2,PPG_G1,PPG_G2,PacketCounter,PacketLoss
524287,524287,297131,311250,80,10
524287,524287,297192,311298,90,0
524287,524287,297265,311351,100,0
524287,524287,297362,311427,110,0
524287,524287,297466,311530,120,0
524287,524287,297545,311577,130,0
524287,524287,297640,311697,140,0
524287,524287,297847,311817,150,0
524287,524287,297948,311927,160,0
524287,524287,297930,311961,170,0
524287,524287,297841,311726,180,0
524287,524287,297595,311405,190,0
524287,524287,297350,311100,200,0
524287,524287,297162,310921,210,0
524287,524287,297056,310784,220,0
524287,524287,297000,310693,230,0
524287,524287,296976,310642,240,0
524287,524287,296985,310592,250,0
524287,524287,296938,310550,260,0
524287,524287,296942,310539,270,0
524287,524287,296933,310516,280,0
524287,524287,296930,310481,290,0
524287,524287,296996,310506,300,0
524287,524287,297099,310580,310,0
524287,524287,297190,310668,320,0
524287,524287,297274,310715,330,0
524287,524287,297367,310789,340,0
524287,524287,297482,310868,350,0
524287,524287,297594,310982,360,0
524287,524287,297698,311080,370,0
524287,524287,297804,311146,380,0
524287,524287,297910,311259,390,0
524287,524287,298040,311350,400,0
524287,524287,298162,311450,410,0
524287,524287,298113,311337,420,0
524287,524287,297923,311048,430,0
524287,524287,297730,310800,440,0
524287,524287,297565,310562,450,0
524287,524287,297431,310412,460,0
524287,524287,297495,310344,470,0
524287,524287,297426,310321,480,0
524287,524287,297352,310267,490,0
524287,524287,297444,310260,500,0
524287,524287,297444,310232,510,0
524287,524287,297477,310265,520,0
524287,524287,297474,310231,530,0
524287,524287,297548,310283,540,0
524287,524287,297609,310337,550,0
524287,524287,297725,310419,560,0
524287,524287,297846,310532,570,0
524287,524287,297937,310584,580,0
524287,524287,298036,310701,590,0
524287,524287,298159,310782,600,0
524287,524287,298297,310913,610,0
524287,524287,298404,311015,620,0
524287,524287,298538,311117,630,0
524287,524287,298668,311229,640,0
524287,524287,298629,311144,650,0
524287,524287,298470,310932,660,0
524287,524287,298324,310720,670,0
524287,524287,298218,310556,680,0
524287,524287,298188,310509,690,0
524287,524287,298171,310441,700,0
524287,524287,298214,310494,710,0
524287,524287,298270,310533,720,0
524287,524287,298285,310536,730,0
524287,524287,298315,310557,740,0
524287,524287,298354,310598,750,0
524287,524287,298405,310649,760,0
524287,524287,298466,310722,770,0
524287,524287,298633,310832,780,0
524287,524287,298769,310956,790,0
524287,524287,298762,311033,800,0
524287,524287,298911,311170,810,0
524287,524287,299054,311268,820,0
524287,524287,299152,311397,830,0
524287,524287,299272,311516,840,0
524287,524287,299385,311626,850,0
524287,524287,299545,311802,860,0
524287,524287,299644,311894,870,0
524287,524287,299816,312051,880,0
524287,524287,299915,312146,890,0
524287,524287,299794,311992,900,0
524287,524287,299645,311794,910,0
524287,524287,299477,311547,920,0
524287,524287,299368,311414,930,0
524287,524287,299279,311294,940,0
524287,524287,299242,311253,950,0
524287,524287,299259,311285,960,0
524287,524287,299269,311279,970,0
524287,524287,299258,311254,980,0
524287,524287,299258,311248,990,0
524287,524287,299276,311276,1000,0
524287,524287,299309,311329,1010,0
524287,524287,299352,311345,1020,0
524287,524287,299430,311446,1030,0
524287,524287,299514,311534,1040,0
524287,524287,299594,311620,1050,0
524287,524287,299712,311781,1060,0
524287,524287,299795,311840,1070,0
524287,524287,299870,311962,1080,0
524287,524287,299954,312047,1090,0
524287,524287,300143,312174,1100,0
524287,524287,300215,312319,1110,0
524287,524287,300235,312425,1120,0
524287,524287,300438,312560,1130,0
524287,524287,300564,312702,1140,0
524287,524287,300615,312761,1150,0
524287,524287,300474,312640,1160,0
524287,524287,300257,312355,1170,0
524287,524287,300080,312186,1180,0
524287,524287,299933,312051,1190,0
524287,524287,299809,311905,1200,0
524287,524287,299791,311884,1210,0
524287,524287,299758,311870,1220,0
524287,524287,299733,311877,1230,0
524287,524287,299699,311840,1240,0
524287,524287,299659,311816,1250,0
524287,524287,299642,311814,1260,0
524287,524287,299658,311846,1270,0
524287,524287,299702,311918,1280,0
524287,524287,299732,311984,1290,0
524287,524287,299777,312036,1300,0
524287,524287,299855,312132,1310,0
524287,524287,299924,312235,1320,0
524287,524287,300016,312318,1330,0
524287,524287,300090,312411,1340,0
524287,524287,300191,312539,1350,0
524287,524287,300272,312630,1360,0
524287,524287,300373,312762,1370,0
524287,524287,300525,312919,1380,0
524287,524287,300597,313010,1390,0
524287,524287,300474,312920,1400,0
524287,524287,300336,312721,1410,0
524287,524287,300238,312570,1420,0
524287,524287,299976,312451,1430,0
524287,524287,299914,312408,1440,0
524287,524287,299909,312392,1450,0
524287,524287,299929,312427,1460,0
524287,524287,299912,312448,1470,0
524287,524287,299885,312456,1480,0
524287,524287,299871,312476,1490,0
524287,524287,299883,312548,1500,0
524287,524287,299894,312584,1510,0
524287,524287,299936,312659,1520,0
524287,524287,299994,312747,1530,0
524287,524287,300056,312839,1540,0
524287,524287,300145,312987,1550,0
524287,524287,300175,313044,1560,0
524287,524287,300269,313164,1570,0
524287,524287,300351,313292,1580,0
524287,524287,300427,313372,1590,0
524287,524287,300542,313530,1600,0
524287,524287,300634,313626,1610,0
524287,524287,300761,313770,1620,0
524287,524287,300856,313884,1630,0
524287,524287,300984,314031,1640,0
524287,524287,300960,314001,1650,0
524287,524287,300746,313791,1660,0
524287,524287,300576,313631,1670,0
524287,524287,300371,313399,1680,0
524287,524287,300272,313324,1690,0
524287,524287,300179,313227,1700,0
524287,524287,300142,313241,1710,0
524287,524287,300128,313236,1720,0
524287,524287,300175,313206,1730,0
524287,524287,300082,313215,1740,0
524287,524287,300023,313223,1750,0
524287,524287,300124,313243,1760,0
524287,524287,300117,313238,1770,0
524287,524287,300180,313327,1780,0
524287,524287,300227,313399,1790,0
524287,524287,300303,313467,1800,0
524287,524287,300369,313536,1810,0
524287,524287,300449,313628,1820,0
524287,524287,300522,313702,1830,0
524287,524287,300617,313782,1840,0
524287,524287,300747,313883,1850,0
524287,524287,300848,313996,1860,0
524287,524287,300966,314106,1870,0
524287,524287,301072,314199,1880,0
524287,524287,301191,314303,1890,0
524287,524287,301335,314421,1900,0
524287,524287,301421,314522,1910,0
524287,524287,301368,314399,1920,0
524287,524287,301190,314184,1930,0
524287,524287,301033,313953,1940,0
524287,524287,300887,313727,1950,0
524287,524287,300803,313617,1960,0
524287,524287,300747,313530,1970,0
524287,524287,300736,313452,1980,0
524287,524287,300767,313470,1990,0
524287,524287,300717,313364,2000,0
524287,524287,300701,313306,2010,0
524287,524287,300716,313293,2020,0
524287,524287,300688,313266,2030,0
524287,524287,300816,313300,2040,0
524287,524287,300868,313282,2050,0
524287,524287,300851,313341,2060,0
524287,524287,300961,313377,2070,0
524287,524287,301092,313468,2080,0
524287,524287,301154,313503,2090,0
524287,524287,301225,313559,2100,0
524287,524287,301309,313630,2110,0
524287,524287,301392,313672,2120,0
524287,524287,301514,313766,2130,0
524287,524287,301590,313841,2140,0
524287,524287,301637,313844,2150,0
524287,524287,301791,313975,2160,0
524287,524287,301854,313989,2170,0
524287,524287,301755,313820,2180,0
524287,524287,301575,313505,2190,0
524287,524287,301411,313266,2200,0
524287,524287,301320,313070,2210,0
524287,524287,301267,312936,2220,0
524287,524287,301247,312871,2230,0
524287,524287,301265,312819,2240,0
524287,524287,301275,312781,2250,0
524287,524287,301286,312732,2260,0
524287,524287,301291,312681,2270,0
524287,524287,301329,312655,2280,0
524287,524287,301385,312680,2290,0
524287,524287,301454,312715,2300,0
524287,524287,301534,312767,2310,0
524287,524287,301635,312835,2320,0
524287,524287,301714,312927,2330,0
524287,524287,301776,312989,2340,0
524287,524287,301964,313078,2350,0
524287,524287,302005,313171,2360,0
524287,524287,302051,313233,2370,0
524287,524287,302202,313354,2380,0
524287,524287,302286,313440,2390,0
524287,524287,302445,313556,2400,0
524287,524287,302488,313587,2410,0
524287,524287,302394,313426,2420,0
524287,524287,302250,313180,2430,0
524287,524287,302094,312924,2440,0
524287,524287,301978,312739,2450,0
524287,524287,301887,312580,2460,0
524287,524287,301854,312494,2470,0
524287,524287,301822,312437,2480,0
524287,524287,301834,312433,2490,0
524287,524287,301804,312384,2500,0
524287,524287,301783,312340,2510,0
524287,524287,301810,312362,2520,0
524287,524287,301817,312354,2530,0
524287,524287,301860,312405,2540,0
524287,524287,301899,312438,2550,0
524287,524287,301985,312533,2560,0
524287,524287,302041,312602,2570,0
524287,524287,302096,312647,2580,0
524287,524287,302187,312753,2590,0
524287,524287,302272,312825,2600,0
524287,524287,302330,312903,2610,0
524287,524287,302424,313015,2620,0
524287,524287,302494,313084,2630,0
524287,524287,302588,313204,2640,0
524287,524287,302645,313295,2650,0
524287,524287,302827,313380,2660,0
524287,524287,303118,313285,2670,0
524287,524287,302784,312980,2680,0
524287,524287,302642,312746,2690,0
524287,524287,302431,312506,2700,0
524287,524287,302277,312333,2710,0
524287,524287,302155,312216,2720,0
524287,524287,302097,312169,2730,0
524287,524287,302036,312122,2740,0
524287,524287,301970,312081,2750,0
524287,524287,301888,312030,2760,0
524287,524287,301814,311978,2770,0
524287,524287,301760,311948,2780,0
524287,524287,301736,311950,2790,0
524287,524287,301741,311977,2800,0
524287,524287,301754,312020,2810,0
524287,524287,301783,312055,2820,0
524287,524287,301822,312148,2830,0
524287,524287,301833,312176,2840,0
524287,524287,301858,312230,2850,0
524287,524287,301910,312322,2860,0
524287,524287,301904,312338,2870,0
524287,524287,301965,312439,2880,0
524287,524287,302011,312504,2890,0
524287,524287,302080,312610,2900,0
524287,524287,302074,312636,2910,0
524287,524287,301873,312423,2920,0
524287,524287,301570,312113,2930,0
524287,524287,301283,311852,2940,0
524287,524287,301069,311677,2950,0
524287,524287,300836,311502,2960,0
524287,524287,300796,311412,2970,0
524287,524287,300725,311336,2980,0
524287,524287,300536,311289,2990,0
524287,524287,300507,311258,3000,0
524287,524287,300437,311227,3010,0
524287,524287,300366,311193,3020,0
524287,524287,300336,311203,3030,0
524287,524287,300319,311242,3040,0
524287,524287,300319,311306,3050,0
524287,524287,300354,311390,3060,0
524287,524287,300391,311477,3070,0
524287,524287,300442,311580,3080,0
524287,524287,300463,311646,3090,0
524287,524287,300506,311741,3100,0
524287,524287,300525,311821,3110,0
524287,524287,300598,311968,3120,0
524287,524287,300658,312045,3130,0
524287,524287,300704,312143,3140,0
524287,524287,300572,312049,3150,0
524287,524287,300245,311786,3160,0
524287,524287,299919,311564,3170,0
524287,524287,299635,311357,3180,0
524287,524287,299420,311227,3190,0
524287,524287,299275,311173,3200,0
524287,524287,299186,311149,3210,0
524287,524287,299113,311141,3220,0
524287,524287,299009,311109,3230,0
524287,524287,298927,311116,3240,0
524287,524287,298849,311108,3250,0
524287,524287,298801,311114,3260,0
524287,524287,298775,311187,3270,0
524287,524287,298813,311246,3280,0
524287,524287,298882,311337,3290,0
524287,524287,298811,311439,3300,0
524287,524287,298901,311526,3310,0
524287,524287,298970,311616,3320,0
524287,524287,299004,311711,3330,0
524287,524287,299052,311817,3340,0
524287,524287,299140,311944,3350,0
524287,524287,299181,312028,3360,0
524287,524287,299308,312209,3370,0
524287,524287,299366,312277,3380,0
524287,524287,299256,312233,3390,0
524287,524287,298913,311975,3400,0
524287,524287,298542,311745,3410,0
524287,524287,298232,311529,3420,0
524287,524287,297988,311383,3430,0
524287,524287,297828,311327,3450,-10
524287,524287,297705,311253,3460,0
524287,524287,297645,311269,3470,0
524287,524287,297561,311231,3480,0
524287,524287,297473,311235,3490,0
524287,524287,297430,311264,3510,-10
524287,524287,297372,311310,3520,0
524287,524287,297394,311373,3530,0
524287,524287,297446,311478,3540,0
524287,524287,297512,311577,3550,0
524287,524287,297557,311667,3560,0
524287,524287,297590,311722,3570,0
524287,524287,297662,311811,3580,0
524287,524287,297739,311927,3590,0
524287,524287,297792,312050,3600,0
524287,524287,297936,312164,3610,0
524287,524287,298005,312261,3620,0
524287,524287,298009,312362,3630,0
524287,524287,298177,312460,3640,0
524287,524287,298187,312508,3650,0
524287,524287,297918,312301,3660,0
524287,524287,297578,312076,3670,0
524287,524287,297231,311852,3680,0
524287,524287,296955,311665,3690,0
524287,524287,296797,311573,3700,0
524287,524287,296672,311472,3710,0
524287,524287,296628,311467,3720,0
524287,524287,296558,311452,3730,0
524287,524287,296500,311436,3740,0
524287,524287,296440,311412,3750,0
524287,524287,296387,311392,3760,0
524287,524287,296369,311397,3770,0
524287,524287,296396,311438,3780,0
524287,524287,296452,311522,3790,0
524287,524287,296510,311584,3800,0
524287,524287,296616,311671,3810,0
524287,524287,296679,311761,3820,0
524287,524287,296758,311830,3830,0
524287,524287,296845,311906,3840,0
524287,524287,296952,312016,3850,0
524287,524287,297045,312120,3860,0
524287,524287,297158,312281,3870,0
524287,524287,297253,312353,3880,0
524287,524287,297409,312515,3890,0
524287,524287,297443,312557,3900,0
524287,524287,297205,312388,3910,0
524287,524287,296891,312186,3920,0
524287,524287,296681,311956,3930,0
524287,524287,296380,311860,3940,0
524287,524287,296209,311781,3950,0
524287,524287,296196,311752,3960,0
524287,524287,296208,311774,3970,0
524287,524287,296175,311764,3980,0
524287,524287,296166,311779,3990,0
524287,524287,296140,311767,4000,0
524287,524287,296135,311786,4010,0
524287,524287,296170,311821,4020,0
524287,524287,296233,311884,4030,0
524287,524287,296335,311994,4040,0
524287,524287,296429,312082,4050,0
524287,524287,296535,312176,4060,0
524287,524287,296618,312268,4070,0
524287,524287,296700,312344,4080,0
524287,524287,296839,312471,4090,0
524287,524287,296934,312572,4100,0
524287,524287,297066,312703,4110,0
524287,524287,297194,312822,4120,0
524287,524287,297320,312933,4130,0
524287,524287,297486,313079,4140,0
524287,524287,297466,313053,4150,0
524287,524287,297202,312836,4160,0
524287,524287,296883,312582,4170,0
524287,524287,296605,312385,4180,0
524287,524287,296418,312239,4190,0
524287,524287,296285,312143,4200,0
524287,524287,296211,312074,4210,0
524287,524287,296205,312064,4220,0
524287,524287,296156,312034,4230,0
524287,524287,296191,312036,4240,0
524287,524287,296234,312007,4250,0
524287,524287,296130,311985,4260,0
524287,524287,296149,312014,4270,0
524287,524287,296272,312041,4280,0
524287,524287,296377,312155,4290,0
524287,524287,296461,312210,4300,0
524287,524287,296563,312315,4310,0
524287,524287,296667,312379,4320,0
524287,524287,296762,312438,4330,0
524287,524287,296904,312579,4340,0
524287,524287,296994,312634,4350,0
524287,524287,297119,312735,4360,0
524287,524287,297250,312810,4370,0
524287,524287,297381,312921,4380,0
524287,524287,297527,313068,4390,0
524287,524287,297675,313188,4400,0
524287,524287,297734,313217,4410,0
524287,524287,297549,313020,4420,0
524287,524287,297240,312743,4430,0
524287,524287,296973,312521,4440,0
524287,524287,296752,312302,4450,0
524287,524287,296629,312170,4460,0
524287,524287,296539,312062,4470,0
524287,524287,296518,312030,4480,0
524287,524287,296505,312018,4490,0
524287,524287,296453,311925,4500,0
524287,524287,296433,311861,4510,0
524287,524287,296431,311828,4520,0
524287,524287,296469,311855,4530,0
524287,524287,296520,311889,4540,0
524287,524287,296557,311892,4550,0
524287,524287,296647,311964,4560,0
524287,524287,296823,311982,4570,0
524287,524287,296827,312057,4580,0
524287,524287,296880,312112,4590,0
524287,524287,297055,312153,4600,0
524287,524287,297150,312241,4610,0
524287,524287,297289,312328,4620,0
524287,524287,297361,312376,4630,0
524287,524287,297506,312489,4640,0
524287,524287,297653,312589,4650,0
524287,524287,297752,312657,4660,0
524287,524287,297895,312764,4670,0
524287,524287,298029,312839,4680,0
524287,524287,297967,312733,4690,0
524287,524287,297709,312475,4700,0
524287,524287,297434,312195,4710,0
524287,524287,297234,311991,4720,0
524287,524287,297088,311829,4730,0
524287,524287,297001,311721,4740,0
524287,524287,296982,311641,4750,0
524287,524287,296985,311616,4760,0
524287,524287,296971,311585,4770,0
524287,524287,296975,311563,4780,0
524287,524287,296962,311524,4790,0
524287,524287,296981,311514,4800,0
524287,524287,297043,311557,4810,0
524287,524287,297115,311603,4820,0
524287,524287,297228,311676,4830,0
524287,524287,297355,311788,4840,0
524287,524287,297466,311868,4850,0
524287,524287,297581,311977,4860,0
524287,524287,297695,312075,4870,0
524287,524287,297776,312143,4880,0
524287,524287,298019,312281,4890,0
524287,524287,298064,312344,4900,0
524287,524287,298161,312515,4910,0
524287,524287,298355,312598,4920,0
524287,524287,298520,312739,4930,0
524287,524287,298686,312890,4940,0
524287,524287,298639,312823,4950,0
524287,524287,298434,312609,4960,0
524287,524287,298230,312395,4970,0
524287,524287,298021,312212,4980,0
524287,524287,297927,312106,4990,0
524287,524287,297840,311982,5000,0
524287,524287,297839,311983,5010,0
524287,524287,297843,311966,5020,0
524287,524287,297839,311966,5030,0
524287,524287,297821,311932,5040,0
524287,524287,297808,311895,5050,0
524287,524287,297846,311929,5060,0
524287,524287,297880,311929,5070,0
524287,524287,297964,312016,5080,0
524287,524287,298040,312087,5090,0
524287,524287,298116,312152,5100,0
524287,524287,298224,312242,5110,0
524287,524287,298320,312299,5120,0
524287,524287,298423,312389,5130,0
524287,524287,298536,312479,5140,0
524287,524287,298650,312571,5150,0
524287,524287,298787,312699,5160,0
524287,524287,298888,312767,5170,0
524287,524287,299029,312898,5180,0
524287,524287,299135,313013,5190,0
524287,524287,299238,313111,5200,0
524287,524287,299509,313250,5210,0
524287,524287,299410,313247,5220,0
524287,524287,299206,313059,5230,0
524287,524287,299043,312811,5240,0
524287,524287,298802,312555,5250,0
524287,524287,298654,312373,5260,0
524287,524287,298533,312270,5270,0
524287,524287,298481,312187,5280,0
524287,524287,298484,312171,5290,0
524287,524287,298461,312107,5300,0
524287,524287,298418,312062,5310,0
524287,524287,298377,312010,5320,0
524287,524287,298380,311990,5330,0
524287,524287,298397,311996,5340,0
524287,524287,298473,312027,5350,0
524287,524287,298523,312052,5360,0
524287,524287,298564,312097,5370,0
524287,524287,298653,312176,5380,0
524287,524287,298706,312196,5390,0
524287,524287,298774,312284,5400,0
524287,524287,298859,312350,5410,0
524287,524287,298923,312396,5420,0
524287,524287,299002,312467,5430,0
524287,524287,299091,312517,5440,0
524287,524287,299173,312609,5450,0
524287,524287,299279,312696,5460,0
524287,524287,299378,312769,5470,0
524287,524287,299286,312653,5480,0
524287,524287,299033,312361,5490,0
524287,524287,298775,312072,5500,0
524287,524287,298534,311814,5510,0
524287,524287,298456,311636,5520,0
524287,524287,298287,311512,5530,0
524287,524287,298186,311395,5540,0
524287,524287,298193,311333,5550,0
524287,524287,298115,311254,5560,0
524287,524287,298077,311203,5570,0
524287,524287,298007,311102,5580,0
524287,524287,297963,311062,5590,0
524287,524287,297957,311012,5600,0
524287,524287,297993,311051,5610,0
524287,524287,298049,311113,5620,0
524287,524287,298086,311126,5630,0
524287,524287,298147,311162,5640,0
524287,524287,298189,311199,5650,0
524287,524287,298286,311280,5660,0
524287,524287,298357,311354,5670,0
524287,524287,298416,311384,5680,0
524287,524287,298507,311479,5690,0
524287,524287,298600,311571,5700,0
524287,524287,298731,311689,5710,0
524287,524287,298752,311717,5720,0
524287,524287,298565,311510,5730,0
524287,524287,298313,311229,5740,0
524287,524287,298107,311023,5750,0
524287,524287,297960,310850,5760,0
524287,524287,297858,310759,5770,0
524287,524287,297780,310667,5780,0
524287,524287,297797,310703,5790,0
524287,524287,297745,310643,5800,0
524287,524287,297699,310622,5810,0
524287,524287,297678,310642,5820,0
524287,524287,297740,310630,5830,0
524287,524287,297703,310671,5840,0
524287,524287,297685,310715,5850,0
524287,524287,297840,310818,5860,0
524287,524287,297873,310896,5870,0
524287,524287,297950,310959,5880,0
524287,524287,298045,311090,5890,0
524287,524287,298117,311172,5900,0
524287,524287,298212,311273,5910,0
524287,524287,298302,311371,5920,0
524287,524287,298417,311492,5930,0
524287,524287,298520,311618,5940,0
524287,524287,298636,311736,5950,0
524287,524287,298748,311856,5960,0
524287,524287,298674,311761,5970,0
524287,524287,298461,311519,5980,0
524287,524287,298240,311252,5990,0
524287,524287,298063,311050,6000,0
524287,524287,297950,310933,6010,0
524287,524287,297863,310826,6020,0
524287,524287,297830,310790,6030,0
524287,524287,297813,310775,6040,0
524287,524287,297804,310775,6050,0
524287,524287,297781,310740,6060,0
524287,524287,297752,310713,6070,0
524287,524287,297792,310735,6080,0
524287,524287,297813,310779,6090,0
524287,524287,297901,310858,6100,0
524287,524287,297969,310915,6110,0
524287,524287,298039,310996,6120,0
524287,524287,298124,311092,6130,0
524287,524287,298306,311207,6140,0
524287,524287,298310,311310,6150,0
524287,524287,298397,311412,6160,0
524287,524287,298580,311514,6170,0
524287,524287,298680,311626,6180,0
524287,524287,298825,311790,6190,0
524287,524287,298921,311884,6200,0
524287,524287,299074,312057,6210,0
524287,524287,299169,312129,6220,0
524287,524287,299103,312044,6230,0
524287,524287,298912,311823,6240,0
524287,524287,298726,311603,6250,0
524287,524287,298576,311403,6260,0
524287,524287,298496,311311,6270,0
524287,524287,298448,311230,6280,0
524287,524287,298411,311199,6290,0
524287,524287,298431,311201,6300,0
524287,524287,298407,311185,6310,0
524287,524287,298412,311146,6320,0
524287,524287,298412,311162,6330,0
524287,524287,298426,311154,6340,0
524287,524287,298474,311202,6350,0
524287,524287,298522,311225,6360,0
524287,524287,298607,311318,6370,0
524287,524287,298674,311364,6380,0
524287,524287,298762,311459,6390,0
524287,524287,298853,311536,6400,0
524287,524287,298949,311640,6410,0
524287,524287,299033,311725,6420,0
524287,524287,299115,311796,6430,0
524287,524287,299218,311904,6440,0
524287,524287,299346,312033,6450,0
524287,524287,299528,312096,6460,0
524287,524287,299502,312215,6470,0
524287,524287,299584,312243,6480,0
524287,524287,299544,312138,6490,0
524287,524287,299335,311916,6500,0
524287,524287,299161,311706,6510,0
524287,524287,299015,311554,6520,0
524287,524287,298918,311430,6530,0
524287,524287,298884,311396,6540,0
524287,524287,298884,311391,6550,0
524287,524287,298867,311368,6560,0
524287,524287,298878,311401,6570,0
524287,524287,298847,311355,6580,0
524287,524287,298867,311382,6590,0
524287,524287,298939,311440,6600,0
524287,524287,298978,311479,6610,0
524287,524287,299085,311599,6620,0
524287,524287,299168,311688,6630,0
524287,524287,299272,311797,6640,0
524287,524287,299372,311922,6650,0
524287,524287,299466,312033,6660,0
524287,524287,299562,312124,6670,0
524287,524287,299664,312261,6680,0
524287,524287,299772,312405,6690,0
524287,524287,299904,312524,6700,0
524287,524287,299966,312608,6710,0
524287,524287,299835,312485,6720,0
524287,524287,299655,312311,6730,0
524287,524287,299483,312135,6740,0
524287,524287,299333,312005,6750,0
524287,524287,299243,311946,6760,0
524287,524287,299289,311939,6770,0
524287,524287,299187,311941,6780,0
524287,524287,299141,311946,6790,0
524287,524287,299162,311883,6800,0
524287,524287,299132,311902,6810,0
524287,524287,299141,311901,6820,0
524287,524287,299153,311970,6830,0
524287,524287,299197,312007,6840,0
524287,524287,299258,312076,6850,0
524287,524287,299347,312202,6860,0
524287,524287,299399,312269,6870,0
524287,524287,299506,312393,6880,0
524287,524287,299595,312489,6890,0
524287,524287,299656,312586,6900,0
524287,524287,299760,312676,6910,0
524287,524287,299855,312797,6920,0
524287,524287,299930,312901,6930,0
524287,524287,300038,313022,6940,0
524287,524287,300132,313104,6950,0
524287,524287,300065,313027,6960,0
524287,524287,299840,312811,6970,0
524287,524287,299627,312632,6980,0
524287,524287,299430,312463,6990,0
524287,524287,299290,312337,7000,0
524287,524287,299217,312272,7010,0
524287,524287,299169,312212,7020,0
524287,524287,299160,312254,7030,0
524287,524287,299115,312203,7040,0
524287,524287,299077,312160,7050,0
524287,524287,299042,312131,7060,0
524287,524287,299008,312157,7070,0
524287,524287,299148,312179,7080,0
524287,524287,299136,312244,7090,0
524287,524287,299104,312256,7100,0
524287,524287,299246,312339,7110,0
524287,524287,299284,312394,7120,0
524287,524287,299347,312466,7130,0
524287,524287,299415,312526,7140,0
524287,524287,299498,312629,7150,0
524287,524287,299572,312682,7160,0
524287,524287,299686,312806,7170,0
524287,524287,299798,312901,7180,0
524287,524287,299820,312903,7190,0
524287,524287,299654,312721,7200,0
524287,524287,299421,312493,7210,0
524287,524287,299240,312304,7220,0
524287,524287,299073,312118,7230,0
524287,524287,298973,312014,7240,0
524287,524287,298913,311936,7250,0
524287,524287,298912,311943,7260,0
524287,524287,298905,311922,7270,0
524287,524287,298873,311874,7280,0
524287,524287,298858,311849,7290,0
524287,524287,298889,311874,7300,0
524287,524287,298876,311877,7310,0
524287,524287,298964,311941,7320,0
524287,524287,299008,311968,7330,0
524287,524287,299109,312070,7340,0
524287,524287,299172,312121,7350,0
524287,524287,299259,312204,7360,0
524287,524287,299338,312287,7380,-10
524287,524287,299412,312355,7390,0
524287,524287,299616,312455,7400,0
524287,524287,299610,312521,7410,0
524287,524287,299704,312647,7430,-10
524287,524287,299867,312691,7440,0
524287,524287,299709,312519,7450,0
524287,524287,299517,312337,7460,0
524287,524287,299396,312168,7470,0
524287,524287,299297,312050,7480,0
524287,524287,299272,311999,7490,0
524287,524287,299290,312017,7500,0
524287,524287,299333,312038,7510,0
524287,524287,299364,312046,7520,0
524287,524287,299413,312094,7530,0
524287,524287,299387,312077,7540,0
524287,524287,299451,312120,7550,0
524287,524287,299508,312194,7560,0
524287,524287,299628,312305,7570,0
524287,524287,299741,312406,7580,0
524287,524287,299818,312465,7590,0
524287,524287,299949,312608,7600,0
524287,524287,300063,312712,7610,0
524287,524287,300203,312850,7620,0
524287,524287,300322,312954,7630,0
524287,524287,300443,313074,7640,0
524287,524287,300562,313175,7650,0
524287,524287,300705,313339,7660,0
524287,524287,300859,313473,7670,0
524287,524287,300865,313465,7680,0
524287,524287,300718,313277,7690,0
524287,524287,300511,313072,7700,0
524287,524287,300443,312928,7710,0
524287,524287,300396,312866,7720,0
524287,524287,300219,312767,7730,0
524287,524287,300292,312753,7740,0
524287,524287,300372,312780,7750,0
524287,524287,300367,312777,7760,0
524287,524287,300394,312826,7770,0
524287,524287,300401,312797,7780,0
524287,524287,300431,312817,7790,0
524287,524287,300517,312878,7800,0
524287,524287,300596,312941,7810,0
524287,524287,300705,313054,7820,0
524287,524287,300800,313139,7830,0
524287,524287,300912,313267,7840,0
524287,524287,300991,313310,7850,0
524287,524287,301105,313429,7860,0
524287,524287,301239,313544,7870,0
524287,524287,301336,313621,7880,0
524287,524287,301479,313756,7890,0
524287,524287,301599,313873,7900,0
524287,524287,301704,314006,7910,0
524287,524287,301865,314147,7920,0
524287,524287,301879,314139,7930,0
524287,524287,301729,313945,7940,0
524287,524287,301527,313726,7950,0
524287,524287,301394,313567,7960,0
524287,524287,301290,313434,7970,0
524287,524287,301218,313299,7980,0
524287,524287,301233,313308,7990,0
524287,524287,301235,313281,8000,0
524287,524287,301223,313291,8010,0
524287,524287,301214,313253,8020,0
524287,524287,301277,313225,8030,0
524287,524287,301226,313186,8040,0
524287,524287,301152,313204,8050,0
524287,524287,301328,313254,8060,0
524287,524287,301397,313319,8070,0
524287,524287,301490,313372,8080,0
524287,524287,301579,313455,8090,0
524287,524287,301642,313502,8100,0
524287,524287,301721,313587,8110,0
524287,524287,301810,313659,8120,0
524287,524287,301914,313734,8130,0
524287,524287,302032,313869,8140,0
524287,524287,302135,313944,8150,0
524287,524287,302269,314066,8160,0
524287,524287,302365,314166,8170,0
524287,524287,302491,314289,8180,0
524287,524287,302562,314333,8190,0
524287,524287,302437,314190,8200,0
524287,524287,302232,313964,8210,0
524287,524287,302030,313732,8220,0
524287,524287,301868,313524,8230,0
524287,524287,301782,313425,8240,0
524287,524287,301733,313343,8250,0
524287,524287,301720,313337,8260,0
524287,524287,301689,313294,8270,0
524287,524287,301647,313234,8280,0
524287,524287,301624,313206,8290,0
524287,524287,301590,313192,8300,0
524287,524287,301627,313221,8310,0
524287,524287,301650,313256,8320,0
524287,524287,301672,313275,8330,0
524287,524287,301732,313346,8340,0
524287,524287,301895,313424,8350,0
524287,524287,301928,313517,8360,0
524287,524287,301927,313587,8370,0
524287,524287,302045,313674,8380,0
524287,524287,302171,313786,8390,0
524287,524287,302212,313853,8400,0
524287,524287,302268,313924,8410,0
524287,524287,302381,314046,8420,0
524287,524287,302484,314164,8430,0
524287,524287,302449,314130,8440,0
524287,524287,302239,313905,8450,0
524287,524287,302005,313686,8460,0
524287,524287,301812,313513,8470,0
524287,524287,301665,313367,8480,0
524287,524287,301576,313309,8490,0
524287,524287,301516,313274,8500,0
524287,524287,301497,313279,8510,0
524287,524287,301437,313268,8520,0
524287,524287,301390,313231,8530,0
524287,524287,301354,313220,8540,0
524287,524287,301337,313221,8550,0
524287,524287,301336,313241,8560,0
524287,524287,301385,313318,8570,0
524287,524287,301421,313360,8580,0
524287,524287,301475,313439,8590,0
524287,524287,301535,313516,8600,0
524287,524287,301604,313611,8610,0
524287,524287,301685,313732,8620,0
524287,524287,301730,313773,8630,0
524287,524287,301832,313900,8640,0
524287,524287,301929,313997,8650,0
524287,524287,302013,314107,8660,0
524287,524287,302102,314257,8670,0
524287,524287,302287,314368,8680,0
524287,524287,302248,314315,8690,0
524287,524287,301900,314103,8700,0
524287,524287,301643,313868,8710,0
524287,524287,301453,313723,8720,0
524287,524287,301271,313568,8730,0
524287,524287,301145,313472,8740,0
524287,524287,301105,313466,8750,0
524287,524287,301062,313453,8760,0
524287,524287,301002,313445,8770,0
524287,524287,300949,313426,8780,0
524287,524287,300863,313376,8790,0
524287,524287,300844,313362,8800,0
524287,524287,300834,313394,8810,0
524287,524287,300857,313432,8820,0
524287,524287,300895,313494,8830,0
524287,524287,300937,313560,8840,0
524287,524287,300978,313614,8850,0
524287,524287,301020,313681,8860,0
524287,524287,301066,313745,8870,0
524287,524287,301122,313820,8880,0
524287,524287,301178,313903,8890,0
524287,524287,301278,314007,8900,0
524287,524287,301325,314061,8910,0
524287,524287,301386,314162,8920,0
524287,524287,301471,314257,8930,0
524287,524287,301360,314135,8940,0
524287,524287,301115,313910,8950,0
524287,524287,300843,313664,8960,0
524287,524287,300602,313457,8970,0
524287,524287,300447,313321,8980,0
524287,524287,300325,313198,8990,0
524287,524287,300246,313167,9000,0
524287,524287,300215,313102,9010,0
524287,524287,300245,313055,9020,0
524287,524287,300038,313017,9030,0
524287,524287,299911,312929,9040,0
524287,524287,300002,312957,9050,0
524287,524287,299975,312928,9060,0
524287,524287,300001,312968,9070,0
524287,524287,300055,313039,9080,0
524287,524287,300081,313052,9090,0
524287,524287,300158,313128,9100,0
524287,524287,300198,313162,9110,0
524287,524287,300255,313236,9120,0
524287,524287,300338,313316,9130,0
524287,524287,300425,313381,9140,0
524287,524287,300504,313475,9150,0
524287,524287,300622,313599,9160,0
524287,524287,300701,313672,9170,0
524287,524287,300629,313612,9180,0
524287,524287,300427,313421,9190,0
524287,524287,300193,313217,9200,0
524287,524287,300018,313063,9210,0
524287,524287,299900,312976,9220,0
524287,524287,299823,312912,9230,0
524287,524287,299827,312925,9240,0
524287,524287,299833,312944,9250,0
524287,524287,299797,312932,9260,0
524287,524287,299773,312917,9270,0
524287,524287,299761,312925,9280,0
524287,524287,299772,312981,9290,0
524287,524287,299817,313028,9300,0
524287,524287,299890,313128,9310,0
524287,524287,299945,313190,9320,0
524287,524287,300017,313276,9330,0
524287,524287,300105,313401,9340,0
524287,524287,300230,313482,9350,0
524287,524287,300299,313587,9360,0
524287,524287,300314,313689,9370,0
524287,524287,300471,313810,9380,0
524287,524287,300595,313946,9390,0
524287,524287,300714,314065,9400,0
524287,524287,300819,314182,9410,0
524287,524287,300779,314151,9420,0
524287,524287,300584,313980,9430,0
524287,524287,300377,313819,9440,0
524287,524287,300208,313639,9450,0
524287,524287,300101,313577,9460,0
524287,524287,300011,313510,9470,0
524287,524287,299965,313496,9480,0
524287,524287,299976,313513,9490,0
524287,524287,299958,313518,9500,0
524287,524287,299930,313525,9510,0
524287,524287,299928,313525,9520,0
524287,524287,299935,313552,9530,0
524287,524287,299982,313630,9540,0
524287,524287,300025,313663,9550,0
524287,524287,300121,313777,9560,0
524287,524287,300204,313865,9570,0
524287,524287,300279,313974,9580,0
524287,524287,300378,314087,9590,0
524287,524287,300461,314167,9600,0
524287,524287,300558,314248,9610,0
524287,524287,300660,314369,9620,0
524287,524287,300756,314454,9630,0
524287,524287,300868,314611,9640,0
524287,524287,300979,314736,9650,0
524287,524287,301086,314845,9660,0
524287,524287,301158,314924,9670,0
524287,524287,301162,314871,9680,0
524287,524287,300967,314689,9690,0
524287,524287,300718,314528,9700,0
524287,524287,300598,314393,9710,0
524287,524287,300507,314320,9720,0
524287,524287,300439,314271,9730,0
524287,524287,300417,314263,9740,0
524287,524287,300413,314268,9750,0
524287,524287,300369,314250,9760,0
524287,524287,300349,314255,9770,0
524287,524287,300317,314218,9780,0
524287,524287,300341,314278,9790,0
524287,524287,300368,314313,9800,0
524287,524287,300391,314341,9810,0
524287,524287,300454,314408,9820,0
524287,524287,300519,314468,9830,0
524287,524287,300594,314558,9840,0
524287,524287,300658,314615,9850,0
524287,524287,300726,314676,9860,0
524287,524287,300799,314750,9870,0
524287,524287,300852,314801,9880,0
524287,524287,300952,314907,9890,0
524287,524287,301054,315017,9900,0
524287,524287,301130,315066,9910,0
524287,524287,301223,315163,9920,0
524287,524287,301348,315272,9930,0
524287,524287,301386,315310,9940,0
524287,524287,301279,315199,9950,0
524287,524287,301056,314955,9960,0
524287,524287,300875,314790,9970,0
524287,524287,300725,314637,9980,0
524287,524287,300604,314526,9990,0
524287,524287,300514,314424,10000,0
524287,524287,300591,314414,10010,0
524287,524287,300486,314371,10020,0
524287,524287,300369,314308,10030,0
524287,524287,300433,314283,10040,0
524287,524287,300405,314252,10050,0
524287,524287,300433,314251,10060,0
524287,524287,300463,314280,10070,0
524287,524287,300512,314311,10080,0
524287,524287,300553,314371,10090,0
524287,524287,300621,314440,10100,0
524287,524287,300688,314505,10110,0
524287,524287,300756,314567,10120,0
524287,524287,300803,314613,10130,0
524287,524287,300910,314720,10140,0
524287,524287,300993,314814,10150,0
524287,524287,301057,314882,10160,0
524287,524287,301114,314959,10170,0
524287,524287,301259,315090,10180,0
524287,524287,301245,315078,10190,0
524287,524287,301063,314861,10200,0
524287,524287,300820,314599,10210,0
524287,524287,300599,314380,10220,0
524287,524287,300417,314186,10230,0
524287,524287,300287,314064,10240,0
524287,524287,300172,313948,10250,0
524287,524287,300098,313851,10260,0
524287,524287,300042,313788,10270,0
524287,524287,299965,313708,10280,0
524287,524287,299898,313653,10290,0
524287,524287,299836,313569,10300,0
524287,524287,299800,313544,10310,0
524287,524287,299784,313554,10320,0
524287,524287,299857,313600,10330,0
524287,524287,299914,313626,10340,0
524287,524287,299844,313648,10350,0
524287,524287,299900,313666,10360,0
524287,524287,299967,313722,10370,0
524287,524287,300011,313754,10380,0
524287,524287,300081,313817,10390,0
524287,524287,300119,313865,10400,0
524287,524287,300159,313915,10410,0
524287,524287,300239,313981,10420,0
524287,524287,300294,314012,10430,0
524287,524287,300364,314105,10440,0
524287,524287,300475,314196,10450,0
524287,524287,300411,314084,10460,0
524287,524287,300141,313797,10470,0
524287,524287,299767,313400,10480,0
524287,524287,299438,313043,10490,0
524287,524287,299175,312749,10500,0
524287,524287,298939,312456,10510,0
524287,524287,298780,312285,10520,0
524287,524287,298652,312129,10530,0
524287,524287,298511,311969,10540,0
524287,524287,298370,311783,10550,0
524287,524287,298245,311627,10560,0
524287,524287,298113,311455,10570,0
524287,524287,298034,311364,10580,0
524287,524287,297978,311310,10590,0
524287,524287,297971,311286,10600,0
524287,524287,297949,311213,10610,0
524287,524287,297928,311186,10620,0
524287,524287,297935,311188,10630,0
524287,524287,297935,311153,10640,0
524287,524287,297943,311184,10650,0
524287,524287,297967,311155,10660,0
524287,524287,298046,311194,10670,0
524287,524287,297983,311206,10680,0
524287,524287,298029,311254,10690,0
524287,524287,298122,311272,10700,0
524287,524287,298152,311314,10710,0
524287,524287,298198,311343,10720,0
524287,524287,298113,311234,10730,0
524287,524287,297764,310833,10740,0
524287,524287,297321,310297,10750,0
524287,524287,296937,309843,10760,0
524287,524287,296620,309463,10770,0
524287,524287,296375,309159,10780,0
524287,524287,296188,308917,10790,0
524287,524287,296065,308788,10800,0
524287,524287,295937,308624,10810,0
524287,524287,295777,308435,10820,0
524287,524287,295666,308299,10830,0
524287,524287,295547,308167,10840,0
524287,524287,295498,308115,10850,0
524287,524287,295456,308070,10860,0
524287,524287,295431,308032,10870,0
524287,524287,295456,308063,10880,0
524287,524287,295477,308090,10890,0
524287,524287,295493,308112,10900,0
524287,524287,295509,308146,10910,0
524287,524287,295549,308178,10920,0
524287,524287,295583,308199,10930,0
524287,524287,295623,308234,10940,0
524287,524287,295687,308318,10950,0
524287,524287,295736,308392,10960,0
524287,524287,295841,308495,10970,0
524287,524287,295791,308475,10980,0
524287,524287,295545,308093,10990,0
524287,524287,295170,307576,11000,0
524287,524287,294599,307041,11010,0
524287,524287,294326,306640,11020,0
524287,524287,294125,306349,11030,0
524287,524287,293921,306122,11040,0
524287,524287,293842,306024,11050,0
524287,524287,293753,305893,11060,0
524287,524287,293629,305769,11070,0
524287,524287,293537,305665,11080,0
524287,524287,293458,305557,11090,0
524287,524287,293446,305548,11100,0
524287,524287,293455,305544,11110,0
524287,524287,293491,305586,11120,0
524287,524287,293563,305663,11130,0
524287,524287,293594,305691,11140,0
524287,524287,293673,305779,11150,0
524287,524287,293731,305848,11160,0
524287,524287,293807,305881,11170,0
524287,524287,293904,306015,11180,0
524287,524287,293999,306067,11190,0
524287,524287,294106,306164,11200,0
524287,524287,294228,306290,11210,0
524287,524287,294326,306365,11220,0
524287,524287,294481,306503,11230,0
524287,524287,294584,306578,11240,0
524287,524287,294474,306399,11250,0
524287,524287,294130,305880,11260,0
524287,524287,293753,305356,11270,0
524287,524287,293472,304937,11280,0
524287,524287,293259,304641,11290,0
524287,524287,293116,304494,11300,0
524287,524287,293128,304375,11310,0
524287,524287,293116,304317,11320,0
524287,524287,292963,304247,11330,0
524287,524287,292974,304147,11340,0
524287,524287,293016,304130,11350,0
524287,524287,293009,304097,11360,0
524287,524287,293084,304138,11370,0
524287,524287,293158,304210,11380,0
524287,524287,293254,304314,11390,0
524287,524287,293349,304411,11410,-10
524287,524287,293471,304492,11420,0
524287,524287,293591,304601,11430,0
524287,524287,293719,304705,11440,0
524287,524287,293853,304830,11460,-10
524287,524287,294110,305047,11470,0
524287,524287,294264,305200,11480,0
524287,524287,294393,305313,11490,0
524287,524287,294567,305498,11500,0
524287,524287,294691,305586,11510,0
524287,524287,294608,305404,11520,0
524287,524287,294377,305007,11530,0
524287,524287,294124,304582,11540,0
524287,524287,293938,304276,11550,0
524287,524287,293821,304050,11560,0
524287,524287,293736,303918,11570,0
524287,524287,293779,303937,11580,0
524287,524287,293779,303925,11590,0
524287,524287,293797,303913,11600,0
524287,524287,293809,303912,11610,0
524287,524287,293816,303895,11620,0
524287,524287,293994,303965,11630,0
524287,524287,293987,304075,11640,0
524287,524287,294117,304189,11650,0
524287,524287,294305,304322,11660,0
524287,524287,294408,304493,11670,0
524287,524287,294575,304652,11680,0
524287,524287,294712,304818,11690,0
524287,524287,294871,305000,11700,0
524287,524287,295038,305147,11710,0
524287,524287,295181,305332,11720,0
524287,524287,295360,305530,11730,0
524287,524287,295563,305742,11740,0
524287,524287,295723,305918,11750,0
524287,524287,295710,305844,11760,0
524287,524287,295548,305571,11770,0
524287,524287,295359,305224,11780,0
524287,524287,295252,305038,11790,0
524287,524287,295200,304928,11800,0
524287,524287,295146,304851,11810,0
524287,524287,295204,304909,11820,0
524287,524287,295244,304948,11830,0
524287,524287,295303,305026,11840,0
524287,524287,295328,305054,11850,0
524287,524287,295380,305134,11860,0
524287,524287,295470,305222,11870,0
524287,524287,295577,305360,11880,0
524287,524287,295709,305530,11890,0
524287,524287,295844,305707,11900,0
524287,524287,295978,305853,11910,0
524287,524287,296104,306041,11920,0
524287,524287,296234,306222,11930,0
524287,524287,296430,306412,11940,0
524287,524287,296619,306609,11950,0
524287,524287,296672,306795,11960,0
524287,524287,296902,306993,11970,0
524287,524287,297114,307227,11980,0
524287,524287,297277,307457,11990,0
524287,524287,297458,307661,12000,0
524287,524287,297630,307858,12010,0
524287,524287,297618,307813,12020,0
524287,524287,297490,307622,12030,0
524287,524287,297381,307435,12040,0
524287,524287,297247,307275,12050,0
524287,524287,297191,307210,12060,0
524287,524287,297186,307190,12070,0
524287,524287,297194,307233,12080,0
524287,524287,297240,307306,12090,0
524287,524287,297257,307354,12100,0
524287,524287,297297,307427,12110,0
524287,524287,297324,307501,12120,0
524287,524287,297403,307608,12130,0
524287,524287,297488,307739,12140,0
524287,524287,297594,307891,12150,0
524287,524287,297702,308040,12160,0
524287,524287,297803,308179,12170,0
524287,524287,297918,308358,12180,0
524287,524287,298020,308498,12190,0
524287,524287,298126,308651,12200,0
524287,524287,298259,308842,12210,0
524287,524287,298383,308978,12220,0
524287,524287,298563,309206,12230,0
524287,524287,298680,309404,12240,0
524287,524287,298788,309531,12250,0
524287,524287,299004,309714,12260,0
524287,524287,298952,309665,12270,0
524287,524287,298690,309468,12280,0
524287,524287,298591,309295,12290,0
524287,524287,298490,309150,12300,0
524287,524287,298396,309058,12310,0
524287,524287,298319,309007,12320,0
524287,524287,298320,309057,12330,0
524287,524287,298346,309122,12340,0
524287,524287,298325,309128,12350,0
524287,524287,298330,309189,12360,0
524287,524287,298334,309223,12370,0
524287,524287,298361,309307,12380,0
524287,524287,298417,309409,12390,0
524287,524287,298470,309510,12400,0
524287,524287,298546,309614,12410,0
524287,524287,298635,309743,12420,0
524287,524287,298735,309888,12430,0
524287,524287,298827,310022,12440,0
524287,524287,298922,310146,12450,0
524287,524287,299011,310285,12460,0
524287,524287,299105,310422,12470,0
524287,524287,299207,310564,12480,0
524287,524287,299320,310709,12490,0
524287,524287,299437,310832,12500,0
524287,524287,299482,310889,12510,0
524287,524287,299328,310727,12520,0
524287,524287,299132,310543,12530,0
524287,524287,298981,310423,12540,0
524287,524287,298893,310337,12550,0
524287,524287,298815,310284,12560,0
524287,524287,298777,310283,12570,0
524287,524287,298802,310334,12580,0
524287,524287,298880,310364,12590,0
524287,524287,298723,310367,12600,0
524287,524287,298739,310397,12610,0
524287,524287,298786,310456,12620,0
524287,524287,298824,310555,12630,0
524287,524287,298886,310657,12640,0
524287,524287,298946,310761,12650,0
524287,524287,299018,310875,12660,0
524287,524287,299108,310998,12670,0
524287,524287,299189,311109,12680,0
524287,524287,299276,311262,12690,0
524287,524287,299337,311329,12700,0
524287,524287,299462,311512,12710,0
524287,524287,299558,311632,12720,0
524287,524287,299687,311813,12730,0
524287,524287,299820,311970,12740,0
524287,524287,299781,311934,12750,0
524287,524287,299607,311758,12760,0
524287,524287,299393,311546,12770,0
524287,524287,299225,311397,12780,0
524287,524287,299081,311286,12790,0
524287,524287,298976,311187,12800,0
524287,524287,298941,311174,12810,0
524287,524287,298969,311206,12820,0
524287,524287,298932,311186,12830,0
524287,524287,298877,311177,12840,0
524287,524287,298802,311175,12850,0
524287,524287,298750,311147,12860,0
524287,524287,298733,311159,12870,0
524287,524287,298783,311201,12880,0
524287,524287,298830,311284,12890,0
524287,524287,298848,311318,12900,0
524287,524287,299035,311410,12910,0
524287,524287,299033,311477,12920,0
524287,524287,298998,311553,12930,0
524287,524287,299114,311608,12940,0
524287,524287,299195,311656,12950,0
524287,524287,299230,311714,12960,0
524287,524287,299320,311785,12970,0
524287,524287,299433,311878,12980,0
524287,524287,299436,311875,12990,0
524287,524287,299218,311579,13000,0
524287,524287,298985,311309,13010,0
524287,524287,298772,311049,13020,0
524287,524287,298598,310854,13030,0
524287,524287,298484,310747,13040,0
524287,524287,298404,310617,13050,0
524287,524287,298395,310599,13060,0
524287,524287,298349,310556,13070,0
524287,524287,298293,310471,13080,0
524287,524287,298267,310456,13090,0
524287,524287,298244,310404,13100,0
524287,524287,298265,310407,13110,0
524287,524287,298277,310393,13120,0
524287,524287,298335,310462,13130,0
524287,524287,298371,310520,13140,0
524287,524287,298428,310558,13150,0
524287,524287,298469,310591,13160,0
524287,524287,298556,310626,13170,0
524287,524287,298642,310694,13180,0
524287,524287,298723,310797,13190,0
524287,524287,298806,310855,13200,0
524287,524287,298918,310957,13210,0
524287,524287,298849,310891,13220,0
524287,524287,298728,310600,13230,0
524287,524287,298444,310259,13240,0
524287,524287,298090,309907,13250,0
524287,524287,297957,309672,13260,0
524287,524287,297839,309437,13270,0
524287,524287,297741,309322,13280,0
524287,524287,297710,309269,13290,0
524287,524287,297628,309129,13300,0
524287,524287,297570,309033,13310,0
524287,524287,297507,308935,13320,0
524287,524287,297476,308861,13330,0
524287,524287,297496,308855,13340,0
524287,524287,297537,308864,13350,0
524287,524287,297572,308888,13360,0
524287,524287,297625,308919,13370,0
524287,524287,297690,308964,13380,0
524287,524287,297776,309013,13390,0
524287,524287,297822,309040,13400,0
524287,524287,297928,309107,13410,0
524287,524287,297988,309153,13420,0
524287,524287,298088,309247,13430,0
524287,524287,298158,309303,13440,0
524287,524287,298264,309396,13450,0
524287,524287,298377,309471,13460,0
524287,524287,298274,309292,13470,0
524287,524287,298020,308936,13480,0
524287,524287,297745,308518,13490,0
524287,524287,297520,308186,13500,0
524287,524287,297350,307950,13510,0
524287,524287,297224,307767,13520,0
524287,524287,297172,307716,13530,0
524287,524287,297197,307634,13540,0
524287,524287,297096,307578,13550,0
524287,524287,297031,307482,13560,0
524287,524287,297062,307455,13570,0
524287,524287,297041,307425,13580,0
524287,524287,297086,307467,13590,0
524287,524287,297105,307493,13600,0
524287,524287,297172,307562,13610,0
524287,524287,297257,307633,13620,0
524287,524287,297330,307709,13630,0
524287,524287,297426,307801,13640,0
524287,524287,297518,307901,13650,0
524287,524287,297607,307987,13660,0
524287,524287,297727,308104,13670,0
524287,524287,297830,308208,13680,0
524287,524287,297985,308379,13690,0
524287,524287,298039,308431,13700,0
524287,524287,297954,308297,13710,0
524287,524287,297738,308016,13720,0
524287,524287,297519,307705,13730,0
524287,524287,297375,307527,13740,0
524287,524287,297265,307394,13750,0
524287,524287,297230,307337,13760,0
524287,524287,297255,307395,13770,0
524287,524287,297247,307398,13780,0
524287,524287,297271,307439,13790,0
524287,524287,297262,307391,13800,0
524287,524287,297312,307487,13810,0
524287,524287,297337,307536,13820,0
524287,524287,297386,307634,13830,0
524287,524287,297511,307782,13840,0
524287,524287,297655,307916,13850,0
524287,524287,297708,308092,13860,0
524287,524287,297833,308216,13870,0
524287,524287,297990,308394,13880,0
524287,524287,298099,308536,13890,0
524287,524287,298227,308708,13900,0
524287,524287,298317,308878,13910,0
524287,524287,298446,309042,13920,0
524287,524287,298553,309173,13930,0
524287,524287,298460,309080,13940,0
524287,524287,298237,308818,13950,0
524287,524287,298047,308579,13960,0
524287,524287,297881,308402,13970,0
524287,524287,297764,308308,13980,0
524287,524287,297684,308241,13990,0
524287,524287,297658,308288,14000,0
524287,524287,297636,308281,14010,0
524287,524287,297603,308307,14020,0
524287,524287,297610,308353,14030,0
524287,524287,297611,308389,14040,0
524287,524287,297619,308438,14050,0
524287,524287,297657,308515,14060,0
524287,524287,297730,308631,14070,0
524287,524287,297821,308776,14080,0
524287,524287,297874,308886,14090,0
524287,524287,297979,309019,14100,0
524287,524287,298070,309173,14110,0
524287,524287,298158,309292,14120,0
524287,524287,298252,309423,14130,0
524287,524287,298322,309589,14140,0
524287,524287,298495,309743,14150,0
524287,524287,298660,309882,14160,0
524287,524287,298595,309967,14170,0
524287,524287,298475,309784,14180,0
524287,524287,298274,309575,14190,0
524287,524287,298043,309414,14200,0
524287,524287,297841,309264,14210,0
524287,524287,297744,309194,14220,0
524287,524287,297665,309170,14230,0
524287,524287,297663,309229,14240,0
524287,524287,297624,309245,14250,0
524287,524287,297595,309230,14260,0
524287,524287,297575,309301,14270,0
524287,524287,297534,309320,14280,0
524287,524287,297552,309372,14290,0
524287,524287,297605,309455,14300,0
524287,524287,297657,309558,14310,0
524287,524287,297743,309698,14320,0
524287,524287,297807,309794,14330,0
524287,524287,297886,309931,14340,0
524287,524287,297936,309999,14350,0
524287,524287,298003,310105,14360,0
524287,524287,298080,310203,14370,0
524287,524287,298146,310303,14380,0
524287,524287,298260,310437,14390,0
524287,524287,298347,310496,14400,0
524287,524287,298250,310413,14410,0
524287,524287,298010,310149,14420,0
524287,524287,297774,309930,14430,0
524287,524287,297565,309746,14440,0
524287,524287,297383,309610,14450,0
524287,524287,297357,309554,14460,0
524287,524287,297353,309569,14470,0
524287,524287,297182,309539,14480,0
524287,524287,297219,309515,14490,0
524287,524287,297207,309463,14500,0
524287,524287,297189,309510,14510,0
524287,524287,297181,309528,14520,0
524287,524287,297221,309595,14530,0
524287,524287,297279,309672,14540,0
524287,524287,297353,309761,14550,0
524287,524287,297436,309879,14560,0
524287,524287,297508,309962,14570,0
524287,524287,297594,310068,14580,0
524287,524287,297707,310195,14590,0
524287,524287,297818,310320,14600,0
524287,524287,297918,310416,14610,0
524287,524287,298042,310553,14620,0
524287,524287,298179,310722,14630,0
524287,524287,298139,310690,14640,0
524287,524287,297922,310473,14650,0
524287,524287,297666,310244,14660,0
524287,524287,297454,310082,14670,0
524287,524287,297292,309942,14680,0
524287,524287,297186,309863,14690,0
524287,524287,297142,309834,14700,0
524287,524287,297149,309864,14710,0
524287,524287,297118,309874,14720,0
524287,524287,297113,309876,14730,0
524287,524287,297080,309867,14740,0
524287,524287,297077,309903,14750,0
524287,524287,297075,309948,14760,0
524287,524287,297190,310053,14770,0
524287,524287,297284,310137,14780,0
524287,524287,297252,310251,14790,0
524287,524287,297412,310394,14800,0
524287,524287,297509,310475,14810,0
524287,524287,297586,310591,14820,0
524287,524287,297701,310716,14830,0
524287,524287,297798,310840,14840,0
524287,524287,297886,310957,14850,0
524287,524287,298016,311091,14860,0
524287,524287,298019,311103,14870,0
524287,524287,297801,310879,14880,0
524287,524287,297491,310573,14890,0
524287,524287,297245,310384,14900,0
524287,524287,297015,310177,14910,0
524287,524287,296888,310081,14920,0
524287,524287,296801,310032,14930,0
524287,524287,296741,310011,14940,0
524287,524287,296687,310020,14950,0
524287,524287,296633,309962,14960,0
524287,524287,296605,309957,14970,0
524287,524287,296574,309922,14980,0
524287,524287,296581,309961,14990,0
524287,524287,296644,310036,15000,0
524287,524287,296654,310068,15010,0
524287,524287,296748,310183,15020,0
524287,524287,296801,310246,15030,0
524287,524287,296881,310330,15040,0
524287,524287,296966,310439,15050,0
524287,524287,297033,310518,15060,0
524287,524287,297120,310626,15070,0
524287,524287,297202,310735,15080,0
524287,524287,297422,310863,15090,0
524287,524287,297314,310920,15100,0
524287,524287,297190,310705,15110,0
524287,524287,296924,310444,15120,0
524287,524287,296575,310134,15130,0
524287,524287,296314,309913,15140,0
524287,524287,296107,309743,15150,0
524287,524287,296010,309659,15160,0
524287,524287,295957,309653,15170,0
524287,524287,295904,309619,15180,0
524287,524287,295839,309567,15190,0
524287,524287,295784,309544,15200,0
524287,524287,295748,309519,15210,0
524287,524287,295763,309559,15220,0
524287,524287,295778,309566,15230,0
524287,524287,295831,309639,15240,0
524287,524287,295876,309684,15250,0
524287,524287,295962,309780,15260,0
524287,524287,296026,309850,15270,0
524287,524287,296117,309936,15280,0
524287,524287,296193,310014,15290,0
524287,524287,296269,310091,15300,0
524287,524287,296376,310201,15320,-10
524287,524287,296466,310311,15330,0
524287,524287,296576,310401,15340,0
524287,524287,296566,310376,15350,0
524287,524287,296292,310100,15360,0
524287,524287,295982,309804,15380,-10
524287,524287,295415,309263,15390,0
524287,524287,295236,309126,15400,0
524287,524287,295239,309042,15410,0
524287,524287,295189,309022,15420,0
524287,524287,295033,308969,15430,0
524287,524287,295067,308909,15440,0
524287,524287,295025,308877,15450,0
524287,524287,294991,308838,15460,0
524287,524287,295049,308864,15470,0
524287,524287,295096,308931,15480,0
524287,524287,295152,309001,15490,0
524287,524287,295280,309126,15500,0
524287,524287,295360,309194,15510,0
524287,524287,295481,309341,15520,0
524287,524287,295562,309419,15530,0
524287,524287,295665,309556,15540,0
524287,524287,295775,309643,15550,0
524287,524287,295877,309770,15560,0
524287,524287,296048,309936,15570,0
524287,524287,296107,309997,15580,0
524287,524287,295903,309790,15590,0
524287,524287,295594,309510,15600,0
524287,524287,295270,309228,15610,0
524287,524287,295050,309068,15620,0
524287,524287,294876,308912,15630,0
524287,524287,294790,308854,15640,0
524287,524287,294766,308844,15650,0
524287,524287,294738,308846,15660,0
524287,524287,294703,308839,15670,0
524287,524287,294677,308830,15680,0
524287,524287,294659,308845,15690,0
524287,524287,294675,308886,15700,0
524287,524287,294707,308907,15710,0
524287,524287,294766,309013,15720,0
524287,524287,294929,309125,15730,0
524287,524287,295057,309226,15740,0
524287,524287,295017,309331,15750,0
524287,524287,295174,309396,15760,0
524287,524287,295322,309551,15770,0
524287,524287,295381,309663,15780,0
524287,524287,295501,309760,15790,0
524287,524287,295600,309874,15800,0
524287,524287,295714,310001,15810,0
524287,524287,295861,310154,15820,0
524287,524287,295809,310093,15830,0
524287,524287,295513,309810,15840,0
524287,524287,295172,309524,15850,0
524287,524287,294888,309279,15860,0
524287,524287,294719,309140,15870,0
524287,524287,294586,309045,15880,0
524287,524287,294525,308997,15890,0
524287,524287,294490,308985,15900,0
524287,524287,294450,308954,15910,0
524287,524287,294426,308947,15920,0
524287,524287,294399,308922,15930,0
524287,524287,294404,308955,15940,0
524287,524287,294435,309003,15950,0
524287,524287,294484,309049,15960,0
524287,524287,294590,309191,15970,0
524287,524287,294666,309261,15980,0
524287,524287,294720,309341,15990,0
524287,524287,294840,309480,16000,0
524287,524287,294897,309546,16010,0
524287,524287,295031,309696,16020,0
524287,524287,295127,309797,16030,0
524287,524287,295218,309909,16040,0
524287,524287,295348,310038,16050,0
524287,524287,295558,310143,16060,0
524287,524287,295504,310198,16070,0
524287,524287,295231,309939,16080,0
524287,524287,294981,309634,16090,0
524287,524287,294723,309427,16100,0
524287,524287,294513,309225,16110,0
524287,524287,294399,309139,16120,0
524287,524287,294328,309076,16130,0
524287,524287,294292,309033,16140,0
524287,524287,294272,309027,16150,0
524287,524287,294235,308975,16160,0
524287,524287,294215,308954,16170,0
524287,524287,294197,308946,16180,0
524287,524287,294244,308988,16190,0
524287,524287,294301,309022,16200,0
524287,524287,294402,309077,16210,0
524287,524287,294487,309149,16220,0
524287,524287,294586,309213,16230,0
524287,524287,294676,309284,16240,0
524287,524287,294779,309366,16250,0
524287,524287,294865,309466,16260,0
524287,524287,294968,309551,16270,0
524287,524287,295074,309645,16280,0
524287,524287,295220,309784,16290,0
524287,524287,295377,309878,16300,0
524287,524287,295387,309877,16310,0
524287,524287,295218,309683,16320,0
524287,524287,294952,309427,16330,0
524287,524287,294732,309194,16340,0
524287,524287,294552,308999,16350,0
524287,524287,294439,308899,16360,0
524287,524287,294404,308871,16370,0
524287,524287,294484,308828,16380,0
524287,524287,294403,308777,16390,0
524287,524287,294329,308729,16400,0
524287,524287,294413,308717,16410,0
524287,524287,294480,308781,16420,0
524287,524287,294518,308790,16430,0
524287,524287,294615,308877,16440,0
524287,524287,294688,308949,16450,0
524287,524287,294793,309067,16460,0
524287,524287,294891,309149,16470,0
524287,524287,295002,309224,16480,0
524287,524287,295127,309338,16490,0
524287,524287,295281,309449,16500,0
524287,524287,295427,309602,16510,0
524287,524287,295566,309746,16520,0
524287,524287,295732,309877,16530,0
524287,524287,295821,309943,16540,0
524287,524287,295675,309773,16550,0
524287,524287,295419,309509,16560,0
524287,524287,295186,309302,16570,0
524287,524287,295007,309112,16580,0
524287,524287,294886,308993,16590,0
524287,524287,294802,308926,16600,0
524287,524287,294813,308926,16610,0
524287,524287,294826,308947,16620,0
524287,524287,294776,308878,16630,0
524287,524287,294761,308877,16640,0
524287,524287,294751,308869,16650,0
524287,524287,294775,308897,16660,0
524287,524287,294836,308967,16670,0
524287,524287,294885,309017,16680,0
524287,524287,294937,309128,16690,0
524287,524287,295120,309214,16700,0
524287,524287,295157,309292,16710,0
524287,524287,295156,309375,16720,0
524287,524287,295318,309459,16730,0
524287,524287,295432,309551,16740,0
524287,524287,295525,309648,16750,0
524287,524287,295605,309760,16760,0
524287,524287,295750,309880,16770,0
524287,524287,295815,309946,16780,0
524287,524287,295649,309739,16790,0
524287,524287,295387,309455,16800,0
524287,524287,295085,309162,16810,0
524287,524287,294856,308961,16820,0
524287,524287,294700,308790,16830,0
524287,524287,294601,308716,16840,0
524287,524287,294552,308668,16850,0
524287,524287,294499,308616,16860,0
524287,524287,294465,308596,16870,0
524287,524287,294410,308531,16880,0
524287,524287,294391,308528,16890,0
524287,524287,294399,308517,16900,0
524287,524287,294444,308567,16910,0
524287,524287,294490,308634,16920,0
524287,524287,294534,308662,16930,0
524287,524287,294630,308793,16940,0
524287,524287,294702,308833,16950,0
524287,524287,294799,308946,16960,0
524287,524287,294888,309034,16970,0
524287,524287,294982,309115,16980,0
524287,524287,295101,309257,16990,0
524287,524287,295208,309354,17000,0
524287,524287,295289,309431,17010,0
524287,524287,295372,309426,17020,0
524287,524287,295061,309116,17030,0
524287,524287,294674,308838,17040,0
524287,524287,294485,308564,17050,0
524287,524287,294341,308409,17060,0
524287,524287,294188,308302,17070,0
524287,524287,294104,308214,17080,0
524287,524287,294085,308200,17090,0
524287,524287,294054,308164,17100,0
524287,524287,294030,308124,17110,0
524287,524287,294009,308107,17120,0
524287,524287,294011,308109,17130,0
524287,524287,294037,308121,17140,0
524287,524287,294086,308165,17150,0
524287,524287,294180,308247,17160,0
524287,524287,294275,308336,17170,0
524287,524287,294372,308414,17180,0
524287,524287,294460,308525,17190,0
524287,524287,294560,308597,17200,0
524287,524287,294687,308738,17210,0
524287,524287,294810,308842,17220,0
524287,524287,294899,308890,17230,0
524287,524287,295055,309056,17240,0
524287,524287,295199,309191,17250,0
524287,524287,295073,309025,17260,0
524287,524287,294869,308797,17270,0
524287,524287,294652,308560,17280,0
524287,524287,294473,308408,17290,0
524287,524287,294378,308290,17300,0
524287,524287,294322,308248,17310,0
524287,524287,294348,308312,17320,0
524287,524287,294341,308302,17330,0
524287,524287,294337,308310,17340,0
524287,524287,294430,308345,17350,0
524287,524287,294400,308330,17360,0
524287,524287,294379,308407,17370,0
524287,524287,294540,308475,17380,0
524287,524287,294654,308588,17390,0
524287,524287,294756,308697,17400,0
524287,524287,294896,308832,17410,0
524287,524287,295014,308942,17420,0
524287,524287,295146,309084,17430,0
524287,524287,295270,309184,17440,0
524287,524287,295435,309343,17450,0
524287,524287,295530,309466,17460,0
524287,524287,295713,309657,17470,0
524287,524287,295858,309753,17480,0
524287,524287,295844,309728,17490,0
524287,524287,295661,309503,17500,0
524287,524287,295483,309333,17510,0
524287,524287,295329,309205,17520,0
524287,524287,295216,309088,17530,0
524287,524287,295176,309060,17540,0
524287,524287,295168,309038,17550,0
524287,524287,295198,309087,17560,0
524287,524287,295229,309126,17570,0
524287,524287,295225,309110,17580,0
524287,524287,295261,309131,17590,0
524287,524287,295317,309187,17600,0
524287,524287,295357,309224,17610,0
524287,524287,295474,309344,17620,0
524287,524287,295555,309413,17630,0
524287,524287,295672,309528,17640,0
524287,524287,295795,309642,17650,0
524287,524287,295878,309730,17660,0
524287,524287,296104,309869,17670,0
524287,524287,296231,309996,17680,0
524287,524287,296262,310124,17690,0
524287,524287,296453,310240,17700,0
524287,524287,296601,310400,17710,0
524287,524287,296762,310559,17720,0
524287,524287,296843,310591,17730,0
524287,524287,296688,310414,17740,0
524287,524287,296545,310224,17750,0
524287,524287,296357,310040,17760,0
524287,524287,296248,309942,17770,0
524287,524287,296199,309876,17780,0
524287,524287,296148,309819,17790,0
524287,524287,296183,309841,17800,0
524287,524287,296165,309847,17810,0
524287,524287,296181,309853,17820,0
524287,524287,296184,309831,17830,0
524287,524287,296209,309855,17840,0
524287,524287,296266,309887,17850,0
524287,524287,296352,309969,17860,0
524287,524287,296446,310034,17870,0
524287,524287,296528,310103,17880,0
524287,524287,296618,310182,17890,0
524287,524287,296743,310284,17900,0
524287,524287,296845,310385,17910,0
524287,524287,296946,310481,17920,0
524287,524287,297067,310570,17930,0
524287,524287,297191,310664,17940,0
524287,524287,297335,310766,17950,0
524287,524287,297457,310912,17960,0
524287,524287,297623,311048,17970,0
524287,524287,297726,311131,17980,0
524287,524287,297664,311053,17990,0
524287,524287,297605,310855,18000,0
524287,524287,297342,310642,18010,0
524287,524287,297168,310517,18020,0
524287,524287,297163,310426,18030,0
524287,524287,297086,310363,18040,0
524287,524287,297070,310320,18050,0
524287,524287,297063,310293,18060,0
524287,524287,297059,310281,18070,0
524287,524287,297044,310231,18080,0
524287,524287,297047,310224,18090,0
524287,524287,297069,310214,18100,0
524287,524287,297129,310257,18110,0
524287,524287,297205,310314,18120,0
524287,524287,297276,310347,18130,0
524287,524287,297362,310431,18140,0
524287,524287,297478,310516,18150,0
524287,524287,297600,310635,18160,0
524287,524287,297703,310718,18170,0
524287,524287,297827,310831,18180,0
524287,524287,297937,310918,18190,0
524287,524287,298074,311041,18200,0
524287,524287,298205,311189,18210,0
524287,524287,298354,311313,18220,0
524287,524287,298384,311330,18230,0
524287,524287,298260,311160,18240,0
524287,524287,298118,310969,18250,0
524287,524287,297957,310812,18260,0
524287,524287,297863,310732,18270,0
524287,524287,297794,310636,18280,0
524287,524287,297780,310625,18290,0
524287,524287,297791,310618,18300,0
524287,524287,297743,310602,18310,0
524287,524287,297844,310586,18320,0
524287,524287,297830,310561,18330,0
524287,524287,297751,310602,18340,0
524287,524287,297863,310603,18350,0
524287,524287,297917,310679,18360,0
524287,524287,298015,310740,18370,0
524287,524287,298115,310860,18380,0
524287,524287,298181,310914,18390,0
524287,524287,298262,310987,18400,0
524287,524287,298385,311103,18410,0
524287,524287,298460,311219,18420,0
524287,524287,298577,311298,18430,0
524287,524287,298677,311416,18440,0
524287,524287,298767,311512,18450,0
524287,524287,298875,311622,18460,0
524287,524287,298990,311720,18470,0
524287,524287,298913,311604,18480,0
524287,524287,298710,311342,18490,0
524287,524287,298531,311153,18500,0
524287,524287,298355,310942,18510,0
524287,524287,298217,310805,18520,0
524287,524287,298156,310693,18530,0
524287,524287,298105,310648,18540,0
524287,524287,298073,310596,18550,0
524287,524287,298022,310510,18560,0
524287,524287,298033,310500,18570,0
524287,524287,298009,310461,18580,0
524287,524287,298039,310458,18590,0
524287,524287,298059,310450,18600,0
524287,524287,298131,310498,18610,0
524287,524287,298194,310528,18620,0
524287,524287,298275,310616,18630,0
524287,524287,298318,310658,18640,0
524287,524287,298532,310783,18650,0
524287,524287,298564,310822,18660,0
524287,524287,298583,310906,18670,0
524287,524287,298740,311001,18680,0
524287,524287,298851,311116,18690,0
524287,524287,298959,311196,18700,0
524287,524287,299081,311298,18710,0
524287,524287,299139,311356,18720,0
524287,524287,299011,311200,18730,0
524287,524287,298801,310968,18740,0
524287,524287,298596,310756,18750,0
524287,524287,298441,310552,18760,0
524287,524287,298355,310439,18770,0
524287,524287,298294,310360,18780,0
524287,524287,298286,310319,18790,0
524287,524287,298279,310285,18800,0
524287,524287,298268,310243,18810,0
524287,524287,298248,310196,18820,0
524287,524287,298267,310201,18830,0
524287,524287,298304,310204,18840,0
524287,524287,298350,310243,18850,0
524287,524287,298433,310320,18860,0
524287,524287,298513,310397,18870,0
524287,524287,298612,310494,18880,0
524287,524287,298711,310572,18890,0
524287,524287,298799,310660,18900,0
524287,524287,298889,310731,18910,0
524287,524287,299001,310851,18920,0
524287,524287,299116,310979,18930,0
524287,524287,299196,311055,18940,0
524287,524287,299305,311172,18950,0
524287,524287,299343,311209,18960,0
524287,524287,299143,310982,18970,0
524287,524287,298956,310728,18980,0
524287,524287,298864,310521,18990,0
524287,524287,298537,310307,19000,0
524287,524287,298499,310192,19010,0
524287,524287,298464,310096,19020,0
524287,524287,298448,310102,19030,0
524287,524287,298412,310055,19040,0
524287,524287,298352,309989,19050,0
524287,524287,298330,309957,19060,0
524287,524287,298306,309911,19070,0
524287,524287,298313,309930,19080,0
524287,524287,298356,309972,19090,0
524287,524287,298389,309991,19100,0
524287,524287,298443,310077,19110,0
524287,524287,298493,310109,19120,0
524287,524287,298583,310206,19130,0
524287,524287,298646,310264,19140,0
524287,524287,298716,310340,19150,0
524287,524287,298805,310430,19160,0
524287,524287,298865,310497,19170,0
524287,524287,298983,310614,19180,0
524287,524287,299074,310679,19190,0
524287,524287,299184,310797,19200,0
524287,524287,299297,310915,19210,0
524287,524287,299344,310951,19220,0
524287,524287,299149,310686,19230,0
524287,524287,298926,310414,19240,0
524287,524287,298655,310056,19250,0
524287,524287,298453,309812,19260,0
524287,524287,298330,309658,19270,0
524287,524287,298222,309545,19280,0
524287,524287,298168,309469,19290,0
524287,524287,298068,309364,19300,0
524287,524287,298004,309286,19310,0
524287,524287,298058,309220,19320,0
524287,524287,297869,309158,19330,0
524287,524287,297838,309128,19350,-10
524287,524287,297877,309098,19370,-10
524287,524287,297923,309141,19380,0
524287,524287,297971,309175,19390,0
524287,524287,298022,309259,19410,-10
524287,524287,298121,309336,19420,0
524287,524287,298159,309374,19430,0
524287,524287,298223,309413,19440,0
524287,524287,298301,309511,19450,0
524287,524287,298379,309579,19460,0
524287,524287,298464,309656,19470,0
524287,524287,298454,309629,19480,0
524287,524287,298232,309335,19490,0
524287,524287,297943,309008,19500,0
524287,524287,297674,308686,19510,0
524287,524287,297455,308459,19520,0
524287,524287,297314,308301,19530,0
524287,524287,297193,308205,19540,0
524287,524287,297138,308147,19550,0
524287,524287,297076,308094,19560,0
524287,524287,296986,308015,19570,0
524287,524287,296920,307974,19580,0
524287,524287,296878,307933,19590,0
524287,524287,296865,307937,19600,0
524287,524287,296861,307964,19610,0
524287,524287,296890,307990,19620,0
524287,524287,296920,308081,19630,0
524287,524287,296949,308144,19640,0
524287,524287,296968,308247,19650,0
524287,524287,297126,308308,19660,0
524287,524287,297138,308364,19670,0
524287,524287,297093,308466,19680,0
524287,524287,297244,308547,19690,0
524287,524287,297332,308676,19700,0
524287,524287,297433,308805,19710,0
524287,524287,297477,308833,19720,0
524287,524287,297283,308622,19730,0
524287,524287,296939,308252,19740,0
524287,524287,296582,307902,19750,0
524287,524287,296319,307654,19760,0
524287,524287,296076,307419,19770,0
524287,524287,295873,307281,19780,0
524287,524287,295786,307273,19790,0
524287,524287,295662,307190,19800,0
524287,524287,295567,307156,19810,0
524287,524287,295449,307051,19820,0
524287,524287,295351,307010,19830,0
524287,524287,295255,306961,19840,0
524287,524287,295216,306954,19850,0
524287,524287,295233,307017,19860,0
524287,524287,295220,307053,19870,0
524287,524287,295253,307126,19880,0
524287,524287,295276,307174,19890,0
524287,524287,295300,307223,19900,0
524287,524287,295347,307318,19910,0
524287,524287,295375,307379,19920,0
524287,524287,295424,307446,19930,0
524287,524287,295508,307569,19940,0
524287,524287,295557,307648,19950,0
524287,524287,295667,307805,19960,0
524287,524287,295597,307729,19970,0
524287,524287,295272,307429,19980,0
524287,524287,294928,307051,19990,0
524287,524287,294553,306691,20000,0
524287,524287,294109,306398,20010,0
524287,524287,293956,306226,20020,0
524287,524287,293782,306108,20030,0
524287,524287,293675,306051,20040,0
524287,524287,293559,305989,20050,0
524287,524287,293430,305900,20060,0
524287,524287,293356,305865,20070,0
524287,524287,293273,305840,20080,0
524287,524287,293204,305822,20090,0
524287,524287,293188,305833,20100,0
524287,524287,293199,305906,20110,0
524287,524287,293243,305980,20120,0
524287,524287,293265,306021,20130,0
524287,524287,293310,306086,20140,0
524287,524287,293354,306162,20150,0
524287,524287,293425,306270,20160,0
524287,524287,293463,306315,20170,0
524287,524287,293529,306412,20180,0
524287,524287,293626,306532,20190,0
524287,524287,293632,306543,20200,0
524287,524287,293372,306302,20210,0
524287,524287,292947,305912,20220,0
524287,524287,292530,305530,20230,0
524287,524287,292207,305261,20240,0
524287,524287,291972,305058,20250,0
524287,524287,291808,304934,20260,0
524287,524287,291744,304917,20270,0
524287,524287,291649,304855,20280,0
524287,524287,291556,304833,20290,0
524287,524287,291482,304760,20300,0
524287,524287,291379,304719,20310,0
524287,524287,291445,304770,20320,0
524287,524287,291473,304772,20330,0
524287,524287,291407,304842,20340,0
524287,524287,291495,304918,20350,0
524287,524287,291657,305042,20360,0
524287,524287,291723,305179,20370,0
524287,524287,291781,305272,20380,0
524287,524287,291856,305354,20390,0
524287,524287,291952,305489,20400,0
524287,524287,292035,305617,20410,0
524287,524287,292184,305787,20420,0
524287,524287,292203,305822,20430,0
524287,524287,291919,305578,20440,0
524287,524287,291534,305246,20450,0
524287,524287,291161,304936,20460,0
524287,524287,290918,304773,20470,0
524287,524287,290717,304617,20480,0
524287,524287,290608,304551,20490,0
524287,524287,290587,304589,20500,0
524287,524287,290533,304579,20510,0
524287,524287,290492,304600,20520,0
524287,524287,290447,304590,20530,0
524287,524287,290409,304606,20540,0
524287,524287,290460,304672,20550,0
524287,524287,290506,304761,20560,0
524287,524287,290581,304882,20570,0
524287,524287,290695,305006,20580,0
524287,524287,290795,305143,20590,0
524287,524287,290894,305278,20600,0
524287,524287,291011,305414,20610,0
524287,524287,291091,305542,20620,0
524287,524287,291230,305711,20630,0
524287,524287,291293,305807,20640,0
524287,524287,291492,305996,20650,0
524287,524287,291644,306140,20660,0
524287,524287,291696,306291,20670,0
524287,524287,291660,306281,20680,0
524287,524287,291343,305977,20690,0
524287,524287,290950,305687,20700,0
524287,524287,290641,305450,20710,0
524287,524287,290429,305320,20720,0
524287,524287,290287,305249,20730,0
524287,524287,290211,305204,20740,0
524287,524287,290201,305256,20750,0
524287,524287,290165,305290,20760,0
524287,524287,290120,305283,20770,0
524287,524287,290107,305313,20780,0
524287,524287,290115,305343,20790,0
524287,524287,290168,305425,20800,0
524287,524287,290256,305536,20810,0
524287,524287,290352,305653,20820,0
524287,524287,290486,305801,20830,0
524287,524287,290605,305956,20840,0
524287,524287,290727,306113,20850,0
524287,524287,290847,306226,20860,0
524287,524287,290980,306374,20870,0
524287,524287,291128,306536,20880,0
524287,524287,291275,306694,20890,0
524287,524287,291418,306866,20900,0
524287,524287,291596,307032,20910,0
524287,524287,291739,307164,20920,0
524287,524287,291616,307080,20930,0
524287,524287,291336,306853,20940,0
524287,524287,290999,306609,20950,0
524287,524287,290799,306503,20960,0
524287,524287,290622,306382,20970,0
524287,524287,290515,306356,20980,0
524287,524287,290562,306380,20990,0
524287,524287,290528,306376,21000,0
524287,524287,290423,306420,21010,0
524287,524287,290486,306390,21020,0
524287,524287,290520,306444,21030,0
524287,524287,290569,306523,21040,0
524287,524287,290639,306579,21050,0
524287,524287,290748,306689,21060,0
524287,524287,290853,306754,21070,0
524287,524287,290972,306892,21080,0
524287,524287,291123,307007,21090,0
524287,524287,291239,307147,21100,0
524287,524287,291382,307253,21110,0
524287,524287,291525,307388,21120,0
524287,524287,291663,307506,21130,0
524287,524287,291822,307650,21140,0
524287,524287,291972,307776,21150,0
524287,524287,292137,307925,21160,0
524287,524287,292307,308063,21170,0
524287,524287,292235,307991,21180,0
524287,524287,292007,307798,21190,0
524287,524287,291756,307598,21200,0
524287,524287,291576,307477,21210,0
524287,524287,291482,307426,21220,0
524287,524287,291420,307385,21230,0
524287,524287,291444,307440,21240,0
524287,524287,291448,307466,21250,0
524287,524287,291479,307512,21260,0
524287,524287,291512,307535,21270,0
524287,524287,291538,307588,21280,0
524287,524287,291633,307686,21290,0
524287,524287,291692,307726,21300,0
524287,524287,291768,307828,21310,0
524287,524287,292000,307973,21320,0
524287,524287,292081,308094,21330,0
524287,524287,292156,308229,21340,0
524287,524287,292359,308372,21350,0
524287,524287,292487,308465,21360,0
524287,524287,292631,308619,21370,0
524287,524287,292748,308735,21380,0
524287,524287,292922,308932,21390,0
524287,524287,293088,309063,21400,0
524287,524287,293138,309098,21410,0
524287,524287,292967,308946,21420,0
524287,524287,292734,308753,21430,0
524287,524287,292512,308589,21440,0
524287,524287,292351,308472,21450,0
524287,524287,292232,308395,21460,0
524287,524287,292207,308399,21470,0
524287,524287,292215,308423,21480,0
524287,524287,292214,308438,21490,0
524287,524287,292196,308435,21500,0
524287,524287,292179,308405,21510,0
524287,524287,292222,308439,21520,0
524287,524287,292265,308468,21530,0
524287,524287,292346,308553,21540,0
524287,524287,292451,308643,21550,0
524287,524287,292536,308707,21560,0
524287,524287,292656,308807,21570,0
524287,524287,292734,308867,21580,0
524287,524287,292854,308964,21590,0
524287,524287,292982,309059,21600,0
524287,524287,293117,309204,21610,0
524287,524287,293261,309319,21620,0
524287,524287,293372,309417,21630,0
524287,524287,293522,309534,21640,0
524287,524287,293767,309659,21650,0
524287,524287,293784,309764,21660,0
524287,524287,293906,309885,21670,0
524287,524287,293866,309755,21680,0
524287,524287,293585,309472,21690,0
524287,524287,293359,309238,21700,0
524287,524287,293151,309034,21710,0
524287,524287,293014,308895,21720,0
524287,524287,292914,308778,21730,0
524287,524287,292879,308713,21740,0
524287,524287,292875,308680,21750,0
524287,524287,292821,308604,21760,0
524287,524287,292812,308569,21770,0
524287,524287,292801,308524,21780,0
524287,524287,292822,308498,21790,0
524287,524287,292875,308510,21800,0
524287,524287,292917,308523,21810,0
524287,524287,293019,308614,21820,0
524287,524287,293087,308626,21830,0
524287,524287,293173,308672,21840,0
524287,524287,293265,308707,21850,0
524287,524287,293362,308769,21860,0
524287,524287,293488,308862,21870,0
524287,524287,293598,308929,21880,0
524287,524287,293726,309008,21890,0
524287,524287,293851,309110,21900,0
524287,524287,293966,309154,21910,0
524287,524287,294089,309250,21920,0
524287,524287,294244,309386,21930,0
524287,524287,294384,309480,21940,0
524287,524287,294349,309408,21950,0
524287,524287,294049,309062,21960,0
524287,524287,293877,308789,21970,0
524287,524287,293682,308487,21980,0
524287,524287,293451,308321,21990,0
524287,524287,293327,308150,22000,0
524287,524287,293290,308040,22010,0
524287,524287,293252,307967,22020,0
524287,524287,293202,307859,22030,0
524287,524287,293158,307789,22040,0
524287,524287,293126,307720,22050,0
524287,524287,293116,307679,22060,0
524287,524287,293157,307709,22070,0
524287,524287,293182,307669,22080,0
524287,524287,293258,307714,22090,0
524287,524287,293360,307745,22100,0
524287,524287,293426,307801,22110,0
524287,524287,293522,307848,22120,0
524287,524287,293612,307912,22130,0
524287,524287,293706,307960,22140,0
524287,524287,293825,308085,22150,0
524287,524287,293907,308120,22160,0
524287,524287,294032,308249,22170,0
524287,524287,294178,308352,22180,0
524287,524287,294173,308321,22190,0
524287,524287,293971,308058,22200,0
524287,524287,293732,307790,22210,0
524287,524287,293519,307558,22220,0
524287,524287,293343,307352,22230,0
524287,524287,293245,307229,22240,0
524287,524287,293217,307194,22250,0
524287,524287,293190,307153,22260,0
524287,524287,293169,307149,22270,0
524287,524287,293107,307104,22280,0
524287,524287,293104,307095,22290,0
524287,524287,293188,307084,22300,0
524287,524287,293115,307106,22310,0
524287,524287,293167,307172,22320,0
524287,524287,293288,307233,22330,0
524287,524287,293340,307315,22340,0
524287,524287,293430,307388,22350,0
524287,524287,293507,307459,22360,0
524287,524287,293611,307578,22370,0
524287,524287,293701,307649,22380,0
524287,524287,293814,307779,22390,0
524287,524287,293913,307873,22400,0
524287,524287,294027,307981,22410,0
524287,524287,294130,308091,22420,0
524287,524287,294242,308228,22430,0
524287,524287,294359,308328,22440,0
524287,524287,294290,308265,22450,0
524287,524287,294007,307937,22460,0
524287,524287,293743,307693,22470,0
524287,524287,293474,307438,22480,0
524287,524287,293286,307265,22490,0
524287,524287,293130,307121,22500,0
524287,524287,293039,307069,22510,0
524287,524287,292988,307041,22520,0
524287,524287,292892,306964,22530,0
524287,524287,292822,306921,22540,0
524287,524287,292781,306905,22550,0
524287,524287,292723,306842,22560,0
524287,524287,292742,306908,22570,0
524287,524287,292762,306934,22580,0
524287,524287,292789,307000,22590,0
524287,524287,292861,307087,22600,0
524287,524287,292877,307145,22610,0
524287,524287,292973,307221,22620,0
524287,524287,293062,307283,22630,0
524287,524287,293011,307360,22640,0
524287,524287,293151,307469,22650,0
524287,524287,293262,307552,22660,0
524287,524287,293366,307684,22670,0
524287,524287,293445,307771,22680,0
524287,524287,293544,307891,22690,0
524287,524287,293649,308004,22700,0
524287,524287,293494,307836,22710,0
524287,524287,293167,307533,22720,0
524287,524287,292853,307262,22730,0
524287,524287,292581,307032,22740,0
524287,524287,292356,306858,22750,0
524287,524287,292181,306729,22760,0
524287,524287,292065,306651,22770,0
524287,524287,291996,306603,22780,0
524287,524287,291886,306527,22790,0
524287,524287,291806,306488,22800,0
524287,524287,291735,306423,22810,0
524287,524287,291689,306412,22820,0
524287,524287,291693,306403,22830,0
524287,524287,291695,306435,22840,0
524287,524287,291736,306507,22850,0
524287,524287,291783,306546,22860,0
524287,524287,291854,306628,22870,0
524287,524287,291899,306667,22880,0
524287,524287,291968,306740,22890,0
524287,524287,292047,306821,22900,0
524287,524287,292106,306867,22910,0
524287,524287,292189,306955,22920,0
524287,524287,292286,307057,22930,0
524287,524287,292377,307171,22940,0
524287,524287,292477,307212,22950,0
524287,524287,292295,307027,22960,0
524287,524287,291847,306715,22970,0
524287,524287,291591,306462,22980,0
524287,524287,291374,306245,22990,0
524287,524287,291190,306115,23000,0
524287,524287,291053,306024,23010,0
524287,524287,290978,305981,23020,0
524287,524287,290902,305922,23030,0
524287,524287,290828,305899,23040,0
524287,524287,290780,305864,23050,0
524287,524287,290745,305827,23060,0
524287,524287,290743,305830,23070,0
524287,524287,290803,305924,23080,0
524287,524287,290850,305986,23090,0
524287,524287,290922,306106,23100,0
524287,524287,290984,306154,23110,0
524287,524287,291092,306260,23120,0
524287,524287,291175,306347,23130,0
524287,524287,291259,306448,23140,0
524287,524287,291376,306590,23150,0
524287,524287,291498,306722,23160,0
524287,524287,291605,306820,23170,0
524287,524287,291746,306976,23180,0
524287,524287,291710,306938,23190,0
524287,524287,291494,306752,23200,0
524287,524287,291208,306505,23210,0
524287,524287,290950,306297,23220,0
524287,524287,290751,306133,23230,0
524287,524287,290603,306020,23240,0
524287,524287,290552,306008,23250,0
524287,524287,290521,305990,23260,0
524287,524287,290473,305989,23270,0
524287,524287,290520,305988,23280,0
524287,524287,290506,305950,23290,0
524287,524287,290428,305992,23300,0
524287,524287,290539,306066,23310,0
524287,524287,290621,306090,23320,0
524287,524287,290710,306208,23330,0
524287,524287,290801,306296,23340,0
524287,524287,290899,306376,23350,0
524287,524287,291022,306492,23360,0
524287,524287,291130,306568,23370,0
524287,524287,291250,306704,23380,0
524287,524287,291374,306786,23390,0
524287,524287,291513,306932,23400,0
524287,524287,291679,307069,23410,0
524287,524287,291836,307199,23430,-10
524287,524287,291825,307135,23440,0
524287,524287,291626,306921,23450,0
524287,524287,291395,306686,23470,-10
524287,524287,291035,306343,23480,0
524287,524287,290935,306240,23490,0
524287,524287,290903,306209,23500,0
524287,524287,290918,306230,23510,0
524287,524287,290918,306232,23520,0
524287,524287,290909,306193,23530,0
524287,524287,290918,306205,23540,0
524287,524287,290963,306209,23550,0
524287,524287,291032,306265,23560,0
524287,524287,291134,306351,23570,0
524287,524287,291237,306423,23580,0
524287,524287,291343,306535,23590,0
524287,524287,291486,306654,23600,0
524287,524287,291553,306725,23610,0
524287,524287,291800,306872,23620,0
524287,524287,291902,306976,23630,0
524287,524287,291954,307088,23640,0
524287,524287,292130,307201,23650,0
524287,524287,292278,307253,23660,0
524287,524287,292155,307121,23670,0
524287,524287,291963,306867,23680,0
524287,524287,291778,306639,23690,0
524287,524287,291621,306442,23700,0
524287,524287,291528,306313,23710,0
524287,524287,291471,306233,23720,0
524287,524287,291495,306211,23730,0
524287,524287,291501,306186,23740,0
524287,524287,291487,306138,23750,0
524287,524287,291513,306129,23760,0
524287,524287,291548,306139,23770,0
524287,524287,291596,306145,23780,0
524287,524287,291669,306171,23790,0
524287,524287,291784,306233,23800,0
524287,524287,291908,306323,23810,0
524287,524287,292022,306390,23820,0
524287,524287,292165,306489,23830,0
524287,524287,292269,306553,23840,0
524287,524287,292380,306613,23850,0
524287,524287,292516,306689,23860,0
524287,524287,292653,306801,23870,0
524287,524287,292834,306934,23880,0
524287,524287,292849,306896,23890,0
524287,524287,292719,306697,23900,0
524287,524287,292520,306416,23910,0
524287,524287,292352,306173,23920,0
524287,524287,292284,306040,23930,0
524287,524287,292203,305903,23940,0
524287,524287,292197,305882,23950,0
524287,524287,292337,305877,23960,0
524287,524287,292338,305876,23970,0
524287,524287,292258,305894,23980,0
524287,524287,292395,305905,23990,0
524287,524287,292463,305952,24000,0
524287,524287,292548,306017,24010,0
524287,524287,292672,306091,24020,0
524287,524287,292826,306243,24030,0
524287,524287,292965,306352,24040,0
524287,524287,293118,306492,24050,0
524287,524287,293297,306627,24060,0
524287,524287,293442,306748,24070,0
524287,524287,293594,306914,24080,0
524287,524287,293802,307100,24090,0
524287,524287,293911,307205,24100,0
524287,524287,293842,307121,24110,0
524287,524287,293681,306867,24120,0
524287,524287,293523,306710,24130,0
524287,524287,293424,306564,24140,0
524287,524287,293329,306442,24150,0
524287,524287,293308,306409,24160,0
524287,524287,293340,306425,24170,0
524287,524287,293372,306444,24180,0
524287,524287,293419,306492,24190,0
524287,524287,293466,306523,24200,0
524287,524287,293498,306555,24210,0
524287,524287,293585,306618,24220,0
524287,524287,293709,306757,24230,0
524287,524287,293855,306897,24240,0
524287,524287,294003,307011,24250,0
524287,524287,294147,307165,24260,0
524287,524287,294287,307314,24270,0
524287,524287,294414,307486,24280,0
524287,524287,294635,307652,24290,0
524287,524287,294769,307777,24300,0
524287,524287,294856,307935,24310,0
524287,524287,294929,307998,24320,0
524287,524287,294887,307840,24330,0
524287,524287,294734,307687,24340,0
524287,524287,294608,307510,24350,0
524287,524287,294535,307468,24360,0
524287,524287,294504,307413,24370,0
524287,524287,294544,307471,24380,0
524287,524287,294598,307531,24390,0
524287,524287,294625,307579,24400,0
524287,524287,294663,307626,24410,0
524287,524287,294729,307662,24420,0
524287,524287,294798,307748,24430,0
524287,524287,294899,307871,24440,0
524287,524287,295038,307993,24450,0
524287,524287,295164,308137,24460,0
524287,524287,295299,308285,24470,0
524287,524287,295431,308425,24480,0
524287,524287,295594,308604,24490,0
524287,524287,295716,308742,24500,0
524287,524287,295875,308904,24510,0
524287,524287,295994,309028,24520,0
524287,524287,295906,308933,24530,0
524287,524287,295788,308790,24540,0
524287,524287,295647,308642,24550,0
524287,524287,295535,308497,24560,0
524287,524287,295505,308468,24570,0
524287,524287,295508,308476,24580,0
524287,524287,295570,308542,24590,0
524287,524287,295604,308609,24600,0
524287,524287,295637,308678,24610,0
524287,524287,295718,308753,24620,0
524287,524287,295899,308840,24630,0
524287,524287,295867,308942,24640,0
524287,524287,295943,309056,24650,0
524287,524287,296123,309186,24660,0
524287,524287,296249,309329,24670,0
524287,524287,296391,309481,24680,0
524287,524287,296508,309628,24690,0
524287,524287,296648,309786,24700,0
524287,524287,296804,309922,24710,0
524287,524287,296930,310060,24720,0
524287,524287,297061,310216,24730,0
524287,524287,297002,310166,24740,0
524287,524287,296876,310023,24750,0
524287,524287,296690,309824,24760,0
524287,524287,296533,309675,24770,0
524287,524287,296435,309583,24780,0
524287,524287,296394,309539,24790,0
524287,524287,296411,309584,24800,0
524287,524287,296427,309604,24810,0
524287,524287,296438,309634,24820,0
524287,524287,296446,309663,24830,0
524287,524287,296459,309675,24840,0
524287,524287,296516,309752,24850,0
524287,524287,296553,309765,24860,0
524287,524287,296639,309893,24870,0
524287,524287,296749,309985,24880,0
524287,524287,296858,310087,24890,0
524287,524287,296996,310234,24900,0
524287,524287,297084,310328,24910,0
524287,524287,297184,310444,24920,0
524287,524287,297306,310557,24930,0
524287,524287,297411,310644,24940,0
524287,524287,297534,310793,24950,0
524287,524287,297741,310929,24960,0
524287,524287,297781,310946,24970,0
524287,524287,297524,310771,24980,0
524287,524287,297325,310504,24990,0
524287,524287,297016,310174,25000,0
524287,524287,296799,309977,25010,0
524287,524287,296615,309745,25020,0
524287,524287,296561,309699,25030,0
524287,524287,296418,309633,25040,0
524287,524287,296385,309543,25050,0
524287,524287,296401,309499,25060,0
524287,524287,296418,309480,25070,0
524287,524287,296478,309475,25080,0
524287,524287,296510,309490,25090,0
524287,524287,296562,309518,25100,0
524287,524287,296628,309596,25110,0
524287,524287,296714,309651,25120,0
524287,524287,296860,309745,25130,0
524287,524287,297012,309824,25140,0
524287,524287,297191,309951,25150,0
524287,524287,297399,310129,25160,0
524287,524287,297540,310246,25170,0
524287,524287,297661,310356,25180,0
524287,524287,297691,310337,25190,0
524287,524287,297482,310086,25200,0
524287,524287,297259,309772,25210,0
524287,524287,297060,309471,25220,0
524287,524287,296886,309266,25230,0
524287,524287,296845,309115,25240,0
524287,524287,296870,309087,25250,0
524287,524287,296927,309135,25260,0
524287,524287,296976,309125,25270,0
524287,524287,297008,309155,25280,0
524287,524287,297100,309172,25290,0
524287,524287,297194,309195,25300,0
524287,524287,297118,309249,25310,0
524287,524287,297241,309323,25320,0
524287,524287,297379,309391,25330,0
524287,524287,297510,309557,25340,0
524287,524287,297667,309663,25350,0
524287,524287,297785,309780,25360,0
524287,524287,297931,309883,25370,0
524287,524287,298052,310001,25380,0
524287,524287,298192,310142,25390,0
524287,524287,298340,310237,25400,0
524287,524287,298427,310306,25410,0
524287,524287,298304,310094,25420,0
524287,524287,298052,309725,25430,0
524287,524287,297774,309344,25440,0
524287,524287,297598,309081,25450,0
524287,524287,297477,308900,25460,0
524287,524287,297445,308829,25470,0
524287,524287,297467,308813,25480,0
524287,524287,297475,308805,25490,0
524287,524287,297496,308800,25500,0
524287,524287,297467,308742,25510,0
524287,524287,297513,308762,25520,0
524287,524287,297575,308787,25530,0
524287,524287,297670,308874,25540,0
524287,524287,297750,308927,25550,0
524287,524287,297870,309070,25560,0
524287,524287,297993,309162,25570,0
524287,524287,298132,309304,25580,0
524287,524287,298248,309401,25590,0
524287,524287,298386,309508,25600,0
524287,524287,298518,309644,25610,0
524287,524287,298626,309753,25620,0
524287,524287,298910,309938,25630,0
524287,524287,298940,310036,25640,0
524287,524287,298833,309896,25650,0
524287,524287,298669,309530,25660,0
524287,524287,298422,309138,25670,0
524287,524287,298186,308799,25680,0
524287,524287,298042,308580,25690,0
524287,524287,297998,308455,25700,0
524287,524287,298006,308427,25710,0
524287,524287,298024,308437,25720,0
524287,524287,298035,308409,25730,0
524287,524287,298056,308393,25740,0
524287,524287,298072,308351,25750,0
524287,524287,298110,308369,25760,0
524287,524287,298186,308431,25770,0
524287,524287,298294,308539,25780,0
524287,524287,298375,308593,25790,0
524287,524287,298511,308714,25800,0
524287,524287,298634,308807,25810,0
524287,524287,298779,308932,25820,0
524287,524287,298905,309074,25830,0
524287,524287,299014,309150,25840,0
524287,524287,299152,309285,25850,0
524287,524287,299293,309414,25860,0
524287,524287,299418,309563,25870,0
524287,524287,299574,309708,25880,0
524287,524287,299711,309824,25890,0
524287,524287,299642,309678,25900,0
524287,524287,299432,309300,25910,0
524287,524287,299195,308937,25920,0
524287,524287,299034,308664,25930,0
524287,524287,298951,308502,25940,0
524287,524287,298907,308457,25950,0
524287,524287,299036,308480,25960,0
524287,524287,299049,308549,25970,0
524287,524287,299013,308591,25980,0
524287,524287,299072,308593,25990,0
524287,524287,299103,308626,26000,0
524287,524287,299147,308685,26010,0
524287,524287,299211,308740,26020,0
524287,524287,299313,308848,26030,0
524287,524287,299432,308977,26040,0
524287,524287,299576,309137,26050,0
524287,524287,299731,309305,26060,0
524287,524287,299869,309471,26070,0
524287,524287,299995,309634,26080,0
524287,524287,300124,309760,26090,0
524287,524287,300263,309936,26100,0
524287,524287,300413,310092,26110,0
524287,524287,300557,310253,26120,0
524287,524287,300534,310179,26130,0
524287,524287,300362,309897,26140,0
524287,524287,300155,309584,26150,0
524287,524287,300002,309347,26160,0
524287,524287,299909,309209,26170,0
524287,524287,299900,309217,26180,0
524287,524287,299944,309271,26190,0
524287,524287,299975,309325,26200,0
524287,524287,300023,309363,26210,0
524287,524287,300076,309415,26220,0
524287,524287,300099,309469,26230,0
524287,524287,300171,309555,26240,0
524287,524287,300242,309638,26250,0
524287,524287,300342,309786,26260,0
524287,524287,300481,309962,26270,0
524287,524287,300573,310120,26280,0
524287,524287,300784,310321,26290,0
524287,524287,300948,310461,26300,0
524287,524287,300986,310629,26310,0
524287,524287,301099,310760,26320,0
524287,524287,301262,310943,26330,0
524287,524287,301346,311084,26340,0
524287,524287,301506,311263,26350,0
524287,524287,301596,311374,26360,0
524287,524287,301473,311224,26370,0
524287,524287,301270,310934,26380,0
524287,524287,301063,310646,26390,0
524287,524287,300904,310473,26400,0
524287,524287,300797,310377,26410,0
524287,524287,300777,310352,26420,0
524287,524287,300788,310381,26430,0
524287,524287,300824,310447,26440,0
524287,524287,300835,310467,26450,0
524287,524287,300824,310478,26460,0
524287,524287,300835,310534,26470,0
524287,524287,300871,310603,26480,0
524287,524287,300942,310715,26490,0
524287,524287,301010,310818,26500,0
524287,524287,301079,310922,26510,0
524287,524287,301188,311059,26520,0
524287,524287,301284,311198,26530,0
524287,524287,301406,311354,26540,0
524287,524287,301512,311504,26550,0
524287,524287,301587,311611,26560,0
524287,524287,301704,311746,26570,0
524287,524287,301791,311881,26580,0
524287,524287,301918,312031,26590,0
524287,524287,302044,312173,26600,0
524287,524287,301969,312104,26610,0
524287,524287,301713,311847,26620,0
524287,524287,301512,311508,26630,0
524287,524287,301223,311256,26640,0
524287,524287,300967,311094,26650,0
524287,524287,300921,311028,26660,0
524287,524287,300906,311027,26670,0
524287,524287,300855,311014,26680,0
524287,524287,300795,310975,26690,0
524287,524287,300732,310973,26700,0
524287,524287,300653,310923,26710,0
524287,524287,300607,310900,26720,0
524287,524287,300600,310931,26730,0
524287,524287,300623,311002,26740,0
524287,524287,300670,311078,26750,0
524287,524287,300689,311147,26760,0
524287,524287,300761,311246,26770,0
524287,524287,300797,311323,26780,0
524287,524287,300836,311413,26790,0
524287,524287,300895,311494,26800,0
524287,524287,300943,311589,26810,0
524287,524287,301036,311708,26820,0
524287,524287,301093,311804,26830,0
524287,524287,300970,311718,26840,0
524287,524287,300648,311423,26850,0
524287,524287,300271,311065,26860,0
524287,524287,299969,310817,26870,0
524287,524287,299765,310678,26880,0
524287,524287,299631,310621,26890,0
524287,524287,299554,310623,26900,0
524287,524287,299474,310581,26910,0
524287,524287,299382,310558,26920,0
524287,524287,299298,310534,26930,0
524287,524287,299205,310509,26940,0
524287,524287,299123,310527,26950,0
524287,524287,299150,310571,26960,0
524287,524287,299186,310624,26970,0
524287,524287,299084,310682,26980,0
524287,524287,299144,310783,26990,0
524287,524287,299257,310885,27000,0
524287,524287,299250,310977,27010,0
524287,524287,299281,311043,27020,0
524287,524287,299328,311166,27030,0
524287,524287,299376,311261,27040,0
524287,524287,299416,311365,27050,0
524287,524287,299494,311476,27060,0
524287,524287,299478,311497,27070,0
524287,524287,299192,311239,27080,0
524287,524287,298736,310846,27090,0
524287,524287,298290,310485,27100,0
524287,524287,297923,310191,27110,0
524287,524287,297636,309999,27120,0
524287,524287,297431,309861,27130,0
524287,524287,297337,309828,27140,0
524287,524287,297192,309749,27150,0
524287,524287,297063,309671,27160,0
524287,524287,296894,309587,27170,0
524287,524287,296774,309549,27180,0
524287,524287,296701,309553,27190,0
524287,524287,296629,309517,27200,0
524287,524287,296649,309591,27210,0
524287,524287,296637,309649,27220,0
524287,524287,296647,309705,27230,0
524287,524287,296646,309755,27240,0
524287,524287,296664,309824,27250,0
524287,524287,296685,309891,27260,0
524287,524287,296712,309953,27270,0
524287,524287,296748,310022,27280,0
524287,524287,296763,310119,27290,0
524287,524287,296883,310214,27300,0
524287,524287,296945,310324,27310,0
524287,524287,296672,310164,27320,0
524287,524287,296289,309776,27330,0
524287,524287,295828,309395,27340,0
524287,524287,295360,309017,27350,0
524287,524287,295036,308786,27360,0
524287,524287,294786,308611,27370,0
524287,524287,294658,308531,27380,0
524287,524287,294544,308479,27390,0
524287,524287,294410,308394,27400,0
524287,524287,294281,308325,27410,0
524287,524287,294199,308305,27420,0
524287,524287,294081,308230,27430,0
524287,524287,294057,308255,27440,0
524287,524287,294041,308278,27450,0
524287,524287,294063,308326,27460,0
524287,524287,294113,308385,27470,0
524287,524287,294133,308452,27480,0
524287,524287,294206,308540,27490,0
524287,524287,294261,308589,27500,0
524287,524287,294297,308671,27510,0
524287,524287,294366,308763,27530,-10
524287,524287,294422,308827,27540,0
524287,524287,294488,308924,27550,0
524287,524287,294575,309011,27560,0
524287,524287,294687,309150,27580,-10
524287,524287,294152,308655,27590,0
524287,524287,293692,308219,27600,0
524287,524287,293292,307899,27610,0
524287,524287,293020,307660,27620,0
524287,524287,292814,307520,27630,0
524287,524287,292789,307471,27640,0
524287,524287,292750,307451,27650,0
524287,524287,292590,307366,27660,0
524287,524287,292550,307337,27670,0
524287,524287,292530,307316,27680,0
524287,524287,292468,307291,27690,0
524287,524287,292493,307342,27700,0
524287,524287,292548,307427,27710,0
524287,524287,292600,307518,27720,0
524287,524287,292713,307651,27730,0
524287,524287,292792,307727,27740,0
524287,524287,292919,307881,27750,0
524287,524287,293008,307989,27760,0
524287,524287,293103,308099,27770,0
524287,524287,293227,308248,27780,0
524287,524287,293332,308377,27790,0
524287,524287,293474,308512,27800,0
524287,524287,293602,308653,27810,0
524287,524287,293436,308498,27820,0
524287,524287,293115,308226,27830,0
524287,524287,292772,307926,27840,0
524287,524287,292504,307715,27850,0
524287,524287,292338,307578,27860,0
524287,524287,292263,307511,27870,0
524287,524287,292273,307528,27880,0
524287,524287,292315,307583,27890,0
524287,524287,292302,307590,27900,0
524287,524287,292316,307617,27910,0
524287,524287,292356,307660,27920,0
524287,524287,292410,307741,27930,0
524287,524287,292497,307827,27940,0
524287,524287,292596,307932,27950,0
524287,524287,292720,308104,27960,0
524287,524287,292940,308244,27970,0
524287,524287,293070,308422,27980,0
524287,524287,293125,308584,27990,0
524287,524287,293338,308729,28000,0
524287,524287,293539,308908,28010,0
524287,524287,293644,309007,28020,0
524287,524287,293860,309239,28030,0
524287,524287,294030,309418,28040,0
524287,524287,294220,309612,28050,0
524287,524287,294411,309771,28060,0
524287,524287,294424,309778,28070,0
524287,524287,294205,309585,28080,0
524287,524287,293949,309393,28090,0
524287,524287,293747,309196,28100,0
524287,524287,293636,309131,28110,0
524287,524287,293599,309085,28120,0
524287,524287,293635,309123,28130,0
524287,524287,293689,309166,28140,0
524287,524287,293727,309177,28150,0
524287,524287,293754,309195,28160,0
524287,524287,293807,309228,28170,0
524287,524287,293876,309288,28180,0
524287,524287,294002,309402,28190,0
524287,524287,294129,309496,28200,0
524287,524287,294260,309621,28210,0
524287,524287,294410,309735,28220,0
524287,524287,294544,309862,28230,0
524287,524287,294715,310009,28240,0
524287,524287,294865,310149,28250,0
524287,524287,295016,310264,28260,0
524287,524287,295192,310416,28270,0
524287,524287,295354,310564,28280,0
524287,524287,295519,310709,28290,0
524287,524287,295707,310884,28300,0
524287,524287,296002,311048,28310,0
524287,524287,296063,311195,28320,0
524287,524287,296003,311171,28330,0
524287,524287,295944,311030,28340,0
524287,524287,295711,310899,28350,0
524287,524287,295610,310841,28360,0
524287,524287,295565,310834,28370,0
524287,524287,295588,310885,28380,0
524287,524287,295679,310989,28390,0
524287,524287,295758,311061,28400,0
524287,524287,295795,311094,28410,0
524287,524287,295861,311181,28420,0
524287,524287,295924,311241,28430,0
524287,524287,296016,311351,28440,0
524287,524287,296132,311468,28450,0
524287,524287,296250,311601,28460,0
524287,524287,296405,311752,28470,0
524287,524287,296542,311877,28480,0
524287,524287,296677,312023,28490,0
524287,524287,296827,312176,28500,0
524287,524287,296965,312299,28510,0
524287,524287,297150,312480,28520,0
524287,524287,297265,312576,28530,0
524287,524287,297425,312729,28540,0
524287,524287,297603,312891,28550,0
524287,524287,297737,313042,28560,0
524287,524287,297894,313178,28570,0
524287,524287,297996,313252,28580,0
524287,524287,297925,313177,28590,0
524287,524287,297764,313041,28600,0
524287,524287,297574,312901,28610,0
524287,524287,297443,312767,28620,0
524287,524287,297366,312733,28630,0
524287,524287,297444,312729,28640,0
524287,524287,297454,312776,28650,0
524287,524287,297397,312788,28660,0
524287,524287,297449,312790,28670,0
524287,524287,297487,312779,28680,0
524287,524287,297481,312748,28690,0
524287,524287,297559,312815,28700,0
524287,524287,297627,312887,28710,0
524287,524287,297716,312971,28720,0
524287,524287,297811,313016,28730,0
524287,524287,297911,313096,28740,0
524287,524287,298013,313205,28750,0
524287,524287,298123,313284,28760,0
524287,524287,298213,313348,28770,0
524287,524287,298319,313441,28780,0
524287,524287,298419,313506,28790,0
524287,524287,298553,313647,28800,0
524287,524287,298678,313754,28810,0
524287,524287,298798,313833,28820,0
524287,524287,298909,313905,28830,0
524287,524287,298857,313837,28840,0
524287,524287,298642,313574,28850,0
524287,524287,298415,313322,28860,0
524287,524287,298248,313106,28870,0
524287,524287,298135,312931,28880,0
524287,524287,298039,312783,28890,0
524287,524287,298024,312728,28900,0
524287,524287,298020,312681,28910,0
524287,524287,297983,312600,28920,0
524287,524287,297929,312511,28930,0
524287,524287,297910,312423,28940,0
524287,524287,297878,312353,28950,0
524287,524287,297862,312367,28960,0
524287,524287,297959,312346,28970,0
524287,524287,298082,312351,28980,0
524287,524287,297999,312352,28990,0
524287,524287,298105,312378,29000,0
524287,524287,298208,312392,29010,0
524287,524287,298271,312439,29020,0
524287,524287,298360,312480,29030,0
524287,524287,298447,312518,29040,0
524287,524287,298522,312559,29050,0
524287,524287,298615,312598,29060,0
524287,524287,298722,312670,29070,0
524287,524287,298805,312727,29080,0
524287,524287,298924,312799,29090,0
524287,524287,298955,312772,29100,0
524287,524287,298809,312554,29110,0
524287,524287,298559,312218,29120,0
524287,524287,298286,311824,29130,0
524287,524287,298114,311580,29140,0
524287,524287,297974,311333,29150,0
524287,524287,297914,311220,29160,0
524287,524287,297899,311131,29170,0
524287,524287,297847,310996,29180,0
524287,524287,297823,310930,29190,0
524287,524287,297781,310834,29200,0
524287,524287,297751,310755,29210,0
524287,524287,297769,310736,29220,0
524287,524287,297797,310702,29230,0
524287,524287,297849,310776,29240,0
524287,524287,297913,310775,29250,0
524287,524287,297975,310825,29260,0
524287,524287,298064,310901,29270,0
524287,524287,298120,310927,29280,0
524287,524287,298206,311007,29290,0
524287,524287,298257,311057,29300,0
524287,524287,298471,311153,29310,0
524287,524287,298533,311266,29320,0
524287,524287,298555,311330,29330,0
524287,524287,298709,311459,29340,0
524287,524287,298799,311510,29350,0
524287,524287,298675,311314,29360,0
524287,524287,298439,310969,29370,0
524287,524287,298190,310616,29380,0
524287,524287,298020,310361,29390,0
524287,524287,297909,310169,29400,0
524287,524287,297828,310065,29410,0
524287,524287,297829,310029,29420,0
524287,524287,297806,309967,29430,0
524287,524287,297768,309894,29440,0
524287,524287,297761,309832,29450,0
524287,524287,297742,309793,29460,0
524287,524287,297754,309792,29470,0
524287,524287,297826,309820,29480,0
524287,524287,297899,309876,29490,0
524287,524287,297977,309954,29500,0
524287,524287,298035,309991,29510,0
524287,524287,298128,310067,29520,0
524287,524287,298218,310158,29530,0
524287,524287,298297,310236,29540,0
524287,524287,298385,310323,29550,0
524287,524287,298490,310411,29560,0
524287,524287,298600,310530,29570,0
524287,524287,298733,310664,29580,0
524287,524287,298839,310745,29590,0
524287,524287,298947,310860,29600,0
524287,524287,299090,310984,29610,0
524287,524287,299072,310938,29620,0
524287,524287,298866,310675,29630,0
524287,524287,298592,310311,29640,0
524287,524287,298439,310010,29650,0
524287,524287,298247,309812,29660,0
524287,524287,298032,309638,29670,0
524287,524287,298064,309563,29680,0
524287,524287,298057,309533,29690,0
524287,524287,298004,309447,29700,0
524287,524287,297952,309406,29710,0
524287,524287,297890,309345,29720,0
524287,524287,297887,309336,29730,0
524287,524287,297895,309341,29740,0
524287,524287,297923,309378,29750,0
524287,524287,297999,309465,29760,0
524287,524287,298058,309516,29770,0
524287,524287,298110,309579,29780,0
524287,524287,298195,309669,29790,0
524287,524287,298254,309716,29800,0
524287,524287,298318,309787,29810,0
524287,524287,298388,309866,29820,0
524287,524287,298470,309947,29830,0
524287,524287,298570,310057,29840,0
524287,524287,298649,310133,29850,0
524287,524287,298738,310219,29860,0
524287,524287,298796,310269,29870,0
524287,524287,298663,310089,29880,0
524287,524287,298385,309749,29890,0
524287,524287,298102,309432,29900,0
524287,524287,297874,309167,29910,0
524287,524287,297691,308980,29920,0
524287,524287,297564,308848,29930,0
524287,524287,297504,308770,29940,0
524287,524287,297453,308736,29950,0
524287,524287,297360,308621,29960,0
524287,524287,297296,308590,29970,0
524287,524287,297231,308550,29980,0
524287,524287,297254,308528,29990,0
524287,524287,297227,308557,30000,0
524287,524287,297169,308594,30010,0
524287,524287,297258,308648,30020,0
524287,524287,297285,308660,30030,0
524287,524287,297321,308755,30040,0
524287,524287,297356,308799,30050,0
524287,524287,297402,308864,30060,0
524287,524287,297459,308964,30070,0
524287,524287,297517,309029,30080,0
524287,524287,297584,309106,30090,0
524287,524287,297668,309214,30100,0
524287,524287,297707,309279,30110,0
524287,524287,297647,309195,30120,0
524287,524287,297383,308903,30130,0
524287,524287,297036,308573,30140,0
524287,524287,296762,308311,30150,0
524287,524287,296536,308087,30160,0
524287,524287,296393,308004,30170,0
524287,524287,296291,307905,30180,0
524287,524287,296233,307880,30190,0
524287,524287,296159,307837,30200,0
524287,524287,296072,307778,30210,0
524287,524287,296024,307769,30220,0
524287,524287,296016,307789,30230,0
524287,524287,296017,307832,30240,0
524287,524287,296053,307883,30250,0
524287,524287,296090,307959,30260,0
524287,524287,296137,308046,30270,0
524287,524287,296230,308129,30280,0
524287,524287,296283,308202,30290,0
524287,524287,296391,308348,30300,0
524287,524287,296428,308438,30310,0
524287,524287,296560,308566,30320,0
524287,524287,296756,308738,30330,0
524287,524287,296733,308836,30340,0
524287,524287,296893,308986,30350,0
524287,524287,296980,309019,30360,0
524287,524287,296782,308849,30370,0
524287,524287,296563,308653,30380,0
524287,524287,296323,308442,30390,0
524287,524287,296171,308320,30400,0
524287,524287,296090,308275,30410,0
524287,524287,296016,308213,30420,0
524287,524287,296050,308269,30430,0
524287,524287,296046,308291,30440,0
524287,524287,296056,308314,30450,0
524287,524287,296084,308389,30460,0
524287,524287,296110,308414,30470,0
524287,524287,296199,308525,30480,0
524287,524287,296264,308616,30490,0
524287,524287,296377,308781,30500,0
524287,524287,296502,308931,30510,0
524287,524287,296635,309082,30520,0
524287,524287,296770,309221,30530,0
524287,524287,296906,309367,30540,0
524287,524287,297032,309520,30550,0
524287,524287,297206,309722,30560,0
524287,524287,297353,309883,30570,0
524287,524287,297503,310087,30580,0
524287,524287,297658,310251,30590,0
524287,524287,297803,310431,30600,0
524287,524287,297967,310622,30610,0
524287,524287,298145,310806,30620,0
524287,524287,298310,310958,30630,0
524287,524287,298378,311028,30640,0
524287,524287,298233,310918,30650,0
524287,524287,298172,310821,30660,0
524287,524287,298186,310762,30670,0
524287,524287,298033,310729,30680,0
524287,524287,298079,310763,30690,0
524287,524287,298210,310829,30700,0
524287,524287,298278,310912,30710,0
524287,524287,298315,310990,30720,0
524287,524287,298364,311054,30730,0
524287,524287,298413,311087,30740,0
524287,524287,298515,311212,30750,0
524287,524287,298627,311332,30760,0
524287,524287,298740,311476,30770,0
524287,524287,298865,311573,30780,0
524287,524287,298981,311702,30790,0
524287,524287,299118,311860,30800,0
524287,524287,299225,311968,30810,0
524287,524287,299338,312097,30820,0
524287,524287,299484,312230,30830,0
524287,524287,299607,312343,30840,0
524287,524287,299748,312498,30850,0
524287,524287,299889,312611,30860,0
524287,524287,300067,312773,30870,0
524287,524287,300248,312970,30880,0
524287,524287,300341,313025,30890,0
524287,524287,300301,312988,30900,0
524287,524287,300244,312917,30910,0
524287,524287,300209,312860,30920,0
524287,524287,300231,312906,30930,0
524287,524287,300282,312940,30940,0
524287,524287,300368,313018,30950,0
524287,524287,300460,313119,30960,0
524287,524287,300558,313242,30970,0
524287,524287,300618,313318,30980,0
524287,524287,300660,313378,30990,0
524287,524287,300728,313448,31000,0
524287,524287,300920,313558,31010,0
524287,524287,300929,313665,31020,0
524287,524287,301030,313783,31030,0
524287,524287,301193,313882,31040,0
524287,524287,301304,314041,31050,0
524287,524287,301401,314125,31060,0
524287,524287,301521,314228,31070,0
524287,524287,301676,314407,31080,0
524287,524287,301803,314535,31090,0
524287,524287,301946,314686,31100,0
524287,524287,302091,314810,31110,0
524287,524287,302209,314971,31120,0
524287,524287,302271,315114,31130,0
524287,524287,302270,315110,31140,0
524287,524287,302189,315032,31150,0
524287,524287,302073,314898,31160,0
524287,524287,301949,314783,31170,0
524287,524287,301932,314743,31180,0
524287,524287,301955,314721,31190,0
524287,524287,301947,314697,31200,0
524287,524287,301985,314752,31210,0
524287,524287,301985,314730,31220,0
524287,524287,301995,314755,31230,0
524287,524287,301945,314696,31240,0
524287,524287,301917,314692,31250,0
524287,524287,301885,314694,31260,0
524287,524287,301889,314699,31270,0
524287,524287,301866,314685,31280,0
524287,524287,301937,314735,31290,0
524287,524287,301997,314734,31300,0
524287,524287,302071,314762,31310,0
524287,524287,302172,314831,31320,0
524287,524287,302230,314880,31330,0
524287,524287,302383,314978,31340,0
524287,524287,302488,315056,31350,0
524287,524287,302465,315120,31360,0
524287,524287,302541,315189,31370,0
524287,524287,302729,315304,31380,0
524287,524287,302683,315309,31390,0
524287,524287,302553,315143,31400,0
524287,524287,302370,314942,31410,0
524287,524287,302202,314830,31420,0
524287,524287,302071,314698,31430,0
524287,524287,301968,314636,31440,0
524287,524287,301912,314616,31450,0
524287,524287,301856,314596,31460,0
524287,524287,301806,314550,31470,0
524287,524287,301706,314485,31480,0
524287,524287,301651,314449,31490,0
524287,524287,301589,314399,31500,0
524287,524287,301564,314380,31510,0
524287,524287,301536,314365,31520,0
524287,524287,301586,314404,31530,0
524287,524287,301627,314459,31540,0
524287,524287,301662,314513,31550,0
524287,524287,301699,314554,31560,0
524287,524287,301704,314582,31570,0
524287,524287,301739,314605,31580,0
524287,524287,301759,314663,31590,0
524287,524287,301811,314723,31600,0
524287,524287,301817,314734,31610,0
524287,524287,301868,314785,31620,0
524287,524287,301939,314840,31630,0
524287,524287,301899,314782,31640,0
524287,524287,301683,314586,31660,-10
524287,524287,301343,314316,31670,0
524287,524287,301011,314049,31680,0
524287,524287,300774,313883,31690,0
524287,524287,300667,313743,31700,0
524287,524287,300425,313650,31710,0
524287,524287,300330,313577,31730,-10
524287,524287,300135,313427,31740,0
524287,524287,300007,313317,31750,0
524287,524287,299920,313274,31760,0
524287,524287,299842,313242,31770,0
524287,524287,299783,313167,31780,0
524287,524287,299744,313165,31790,0
524287,524287,299737,313187,31800,0
524287,524287,299717,313183,31810,0
524287,524287,299740,313198,31820,0
524287,524287,299777,313245,31830,0
524287,524287,299769,313265,31840,0
524287,524287,299804,313329,31850,0
524287,524287,299803,313332,31860,0
524287,524287,299832,313385,31870,0
524287,524287,299856,313413,31880,0
524287,524287,299871,313433,31890,0
524287,524287,299795,313380,31900,0
524287,524287,299450,313066,31910,0
524287,524287,299009,312694,31920,0
524287,524287,298559,312343,31930,0
524287,524287,298214,312062,31940,0
524287,524287,297947,311862,31950,0
524287,524287,297727,311688,31960,0
524287,524287,297563,311589,31970,0
524287,524287,297397,311454,31980,0
524287,524287,297217,311305,31990,0
524287,524287,297056,311193,32000,0
524287,524287,296917,311097,32010,0
524287,524287,296812,311049,32020,0
524287,524287,296759,311026,32030,0
524287,524287,296753,311007,32040,0
524287,524287,296646,311007,32050,0
524287,524287,296627,311018,32060,0
524287,524287,296664,311036,32070,0
524287,524287,296632,311057,32080,0
524287,524287,296614,311057,32090,0
524287,524287,296605,311070,32100,0
524287,524287,296596,311097,32110,0
524287,524287,296578,311132,32120,0
524287,524287,296586,311162,32130,0
524287,524287,296473,311085,32140,0
524287,524287,296005,310713,32150,0
524287,524287,295374,310278,32160,0
524287,524287,294835,309846,32170,0
524287,524287,294501,309600,32180,0
524287,524287,294233,309428,32190,0
524287,524287,294027,309264,32200,0
524287,524287,293888,309189,32210,0
524287,524287,293741,309120,32220,0
524287,524287,293556,308998,32230,0
524287,524287,293436,308938,32240,0
524287,524287,293308,308877,32250,0
524287,524287,293221,308863,32260,0
524287,524287,293174,308870,32270,0
524287,524287,293160,308911,32280,0
524287,524287,293198,309019,32290,0
524287,524287,293207,309045,32300,0
524287,524287,293217,309107,32310,0
524287,524287,293225,309155,32320,0
524287,524287,293228,309230,32330,0
524287,524287,293250,309305,32340,0
524287,524287,293293,309406,32350,0
524287,524287,293318,309458,32360,0
524287,524287,293343,309563,32370,0
524287,524287,293319,309505,32380,0
524287,524287,292844,309231,32390,0
524287,524287,292205,308864,32400,0
524287,524287,291682,308519,32410,0
524287,524287,291324,308316,32420,0
524287,524287,291072,308188,32430,0
524287,524287,290935,308141,32440,0
524287,524287,290842,308154,32450,0
524287,524287,290762,308164,32460,0
524287,524287,290625,308099,32470,0
524287,524287,290521,308119,32480,0
524287,524287,290408,308091,32490,0
524287,524287,290375,308176,32500,0
524287,524287,290369,308235,32510,0
524287,524287,290393,308307,32520,0
524287,524287,290448,308410,32530,0
524287,524287,290506,308522,32540,0
524287,524287,290572,308665,32550,0
524287,524287,290620,308753,32560,0
524287,524287,290655,308844,32570,0
524287,524287,290722,308994,32580,0
524287,524287,290771,309118,32590,0
524287,524287,290839,309238,32600,0
524287,524287,290888,309338,32610,0
524287,524287,290675,309241,32620,0
524287,524287,290137,308949,32630,0
524287,524287,289590,308668,32640,0
524287,524287,289098,308384,32650,0
524287,524287,288820,308290,32660,0
524287,524287,288607,308193,32670,0
524287,524287,288526,308173,32680,0
524287,524287,288454,308177,32690,0
524287,524287,288343,308139,32700,0
524287,524287,288244,308137,32710,0
524287,524287,288164,308081,32720,0
524287,524287,288234,308098,32730,0
524287,524287,288130,308122,32740,0
524287,524287,288178,308213,32750,0
524287,524287,288290,308320,32760,0
524287,524287,288438,308393,-32766,65536
524287,524287,288519,308475,-32756,0
524287,524287,288635,308627,-32746,0
524287,524287,288718,308707,-32736,0
524287,524287,288841,308832,-32726,0
524287,524287,288938,308924,-32716,0
524287,524287,289077,309041,-32706,0
524287,524287,289271,309244,-32696,0
524287,524287,289298,309270,-32686,0
524287,524287,288992,309099,-32676,0
524287,524287,288523,308861,-32666,0
524287,524287,288078,308634,-32656,0
524287,524287,287789,308493,-32646,0
524287,524287,287630,308388,-32636,0
524287,524287,287574,308388,-32626,0
524287,524287,287623,308449,-32616,0
524287,524287,287646,308461,-32606,0
524287,524287,287664,308470,-32596,0
524287,524287,287689,308511,-32586,0
524287,524287,287735,308541,-32576,0
524287,524287,287823,308622,-32566,0
524287,524287,287958,308742,-32556,0
524287,524287,288105,308866,-32546,0
524287,524287,288256,308972,-32536,0
524287,524287,288438,309108,-32526,0
524287,524287,288607,309246,-32516,0
524287,524287,288777,309388,-32506,0
524287,524287,288938,309504,-32496,0
524287,524287,289126,309692,-32486,0
524287,524287,289269,309804,-32476,0
524287,524287,289551,309967,-32466,0
524287,524287,289726,310163,-32456,0
524287,524287,289816,310297,-32446,0
524287,524287,289907,310286,-32436,0
524287,524287,289625,310103,-32426,0
524287,524287,289242,309889,-32416,0
524287,524287,288993,309751,-32406,0
524287,524287,288828,309630,-32396,0
524287,524287,288763,309574,-32386,0
524287,524287,288812,309570,-32376,0
524287,524287,288867,309595,-32366,0
524287,524287,288956,309632,-32356,0
524287,524287,289013,309639,-32346,0
524287,524287,289095,309691,-32336,0
524287,524287,289197,309710,-32326,0
524287,524287,289331,309796,-32316,0
524287,524287,289531,309933,-32306,0
524287,524287,289720,310013,-32296,0
524287,524287,289915,310117,-32286,0
524287,524287,290134,310230,-32276,0
524287,524287,290336,310367,-32266,0
524287,524287,290569,310517,-32256,0
524287,524287,290811,310675,-32246,0
524287,524287,291069,310836,-32236,0
524287,524287,291343,311048,-32226,0
524287,524287,291576,311208,-32216,0
524287,524287,291849,311412,-32206,0
524287,524287,292065,311556,-32196,0
524287,524287,292064,311487,-32186,0
524287,524287,291931,311392,-32176,0
524287,524287,291787,311284,-32166,0
524287,524287,291772,311285,-32156,0
524287,524287,291806,311329,-32146,0
524287,524287,291954,311441,-32136,0
524287,524287,292234,311592,-32126,0
524287,524287,292305,311677,-32116,0
524287,524287,292375,311805,-32106,0
524287,524287,292602,311926,-32096,0
524287,524287,292776,312034,-32086,0
524287,524287,292967,312167,-32076,0
524287,524287,293193,312339,-32066,0
524287,524287,293432,312508,-32056,0
524287,524287,293683,312694,-32046,0
524287,524287,293930,312863,-32036,0
524287,524287,294176,313051,-32026,0
524287,524287,294439,313238,-32016,0
524287,524287,294697,313431,-32006,0
524287,524287,294959,313659,-31996,0
524287,524287,295234,313853,-31986,0
524287,524287,295490,314049,-31976,0
524287,524287,295765,314249,-31966,0
524287,524287,296050,314459,-31956,0
524287,524287,296157,314527,-31946,0
524287,524287,296132,314524,-31936,0
524287,524287,296130,314510,-31926,0
524287,524287,296145,314550,-31916,0
524287,524287,296234,314629,-31906,0
524287,524287,296352,314733,-31896,0
524287,524287,296522,314848,-31886,0
524287,524287,296707,315008,-31876,0
524287,524287,296869,315128,-31866,0
524287,524287,297008,315205,-31856,0
524287,524287,297178,315344,-31846,0
524287,524287,297378,315507,-31836,0
524287,524287,297583,315645,-31826,0
524287,524287,297784,315812,-31816,0
524287,524287,298001,315962,-31806,0
524287,524287,298187,316107,-31796,0
524287,524287,298508,316283,-31786,0
524287,524287,298670,316453,-31776,0
524287,524287,298788,316598,-31766,0
524287,524287,299071,316758,-31756,0
524287,524287,299316,316900,-31746,0
524287,524287,299539,317108,-31736,0
524287,524287,299741,317248,-31726,0
