PPG_IR1,PPG_IR2,PPG_G1,PPG_G2,PacketCounter,PacketLoss,Timestamp
10073,7972,294385,243920,130,10,11:28:19.401724
10078,7976,294382,243924,140,0,11:28:19.441217
10085,7975,294370,243912,150,0,11:28:19.471173
10074,7974,294367,243909,160,0,11:28:19.511320
10074,7976,294370,243915,170,0,11:28:19.561319
10045,7973,294364,243916,180,0,11:28:19.590058
10037,7969,294366,243917,190,0,11:28:19.630874
10067,7972,294370,243914,200,0,11:28:19.670655
10079,7968,294364,243904,210,0,11:28:19.711296
10066,7970,294360,243898,220,0,11:28:19.751111
10044,7972,294360,243898,230,0,11:28:19.791080
10072,7970,294363,243904,240,0,11:28:19.830773
10067,7970,294356,243905,250,0,11:28:19.871232
10036,7971,294353,243895,260,0,11:28:19.911226
10050,7970,294348,243885,270,0,11:28:19.950205
10054,7975,294343,243893,280,0,11:28:19.991336
9993,7974,294353,243887,290,0,11:28:20.031301
10038,7970,294343,243885,300,0,11:28:20.071076
10048,7971,294335,243888,310,0,11:28:20.111324
10040,7969,294333,243884,320,0,11:28:20.151255
10062,7972,294337,243886,330,0,11:28:20.190966
10067,7974,294332,243882,340,0,11:28:20.231288
10078,7977,294326,243884,350,0,11:28:20.271247
10135,7978,294326,243874,360,0,11:28:20.310938
10147,7972,294333,243872,370,0,11:28:20.351264
10137,7974,294331,243880,380,0,11:28:20.391214
10120,7976,294331,243876,390,0,11:28:20.430710
10109,7973,294330,243880,400,0,11:28:20.471599
10087,7975,294322,243877,410,0,11:28:20.531388
10079,7972,294316,243871,420,0,11:28:20.561308
10077,7974,294321,243870,430,0,11:28:20.591228
10074,7972,294311,243862,440,0,11:28:20.632118
10027,7972,294317,243870,450,0,11:28:20.670768
10025,7974,294322,243868,460,0,11:28:20.710183
10046,7975,294319,243869,470,0,11:28:20.750812
10042,7975,294339,243876,480,0,11:28:20.790463
10050,7973,294333,243866,490,0,11:28:20.830830
10060,7974,294328,243870,500,0,11:28:20.870138
10059,7971,294333,243865,510,0,11:28:20.911258
11550,9147,294316,243860,520,0,11:28:20.950153
11554,9148,294311,243860,530,0,11:28:20.990399
11554,9145,294310,243862,540,0,11:28:21.031143
11556,9147,294308,243859,550,0,11:28:21.071286
11552,9144,294305,243857,560,0,11:28:21.111045
11553,9142,294294,243850,570,0,11:28:21.151412
11553,9142,294274,243842,580,0,11:28:21.191330
11554,9143,294259,243850,590,0,11:28:21.230983
11556,9148,294294,243852,600,0,11:28:21.271159
11554,9146,294287,243842,610,0,11:28:21.310289
11556,9151,294284,243847,620,0,11:28:21.350685
11553,9148,294298,243849,630,0,11:28:21.390809
11557,9150,294295,243849,640,0,11:28:21.430505
11555,9147,294290,243844,650,0,11:28:21.470173
11556,9148,294297,243854,660,0,11:28:21.510616
11555,9145,294275,243849,670,0,11:28:21.550551
11555,9146,294265,243846,680,0,11:28:21.590251
11555,9145,294236,243841,690,0,11:28:21.631067
11559,9151,294246,243838,700,0,11:28:21.670298
11556,9148,294253,243837,710,0,11:28:21.710166
11557,9148,294265,243842,720,0,11:28:21.750721
11556,9146,294284,243837,730,0,11:28:21.790309
11555,9145,294276,243836,740,0,11:28:21.831931
11554,9144,294285,243845,750,0,11:28:21.870895
11555,9146,294314,243837,760,0,11:28:21.910974
11551,9138,294358,243844,770,0,11:28:21.950267
11554,9143,294357,243843,780,0,11:28:21.990776
11556,9146,294338,243837,790,0,11:28:22.031309
11556,9147,294334,243843,800,0,11:28:22.070269
11555,9147,294298,243841,810,0,11:28:22.110364
11554,9147,294284,243836,820,0,11:28:22.150912
11553,9148,294274,243837,830,0,11:28:22.190349
11556,9148,294259,243834,840,0,11:28:22.232258
11556,9149,294215,243841,850,0,11:28:22.270349
11556,9149,294223,243830,860,0,11:28:22.310282
11555,9149,294236,243822,870,0,11:28:22.352233
11556,9148,294246,243832,880,0,11:28:22.391016
11557,9150,294259,243828,890,0,11:28:22.431324
11554,9143,294268,243832,900,0,11:28:22.470350
11554,9145,294270,243834,910,0,11:28:22.510880
11561,9151,294267,243830,920,0,11:28:22.551042
11555,9145,294260,243822,930,0,11:28:22.590540
11557,9148,294258,243823,940,0,11:28:22.631246
11555,9145,294266,243823,950,0,11:28:22.671387
11556,9147,294261,243818,960,0,11:28:22.710359
11555,9144,294259,243820,970,0,11:28:22.750449
11554,9143,294258,243818,980,0,11:28:22.790272
11556,9146,294256,243810,990,0,11:28:22.831198
11554,9144,294253,243815,1000,0,11:28:22.870370
11553,9144,294259,243816,1010,0,11:28:22.910380
11552,9144,294259,243816,1020,0,11:28:22.950975
13074,10346,294257,243826,1030,0,11:28:22.990273
13076,10352,294262,243824,1040,0,11:28:23.032404
13077,10351,294259,243816,1050,0,11:28:23.070337
13077,10351,294251,243813,1060,0,11:28:23.110138
13076,10350,294259,243821,1070,0,11:28:23.151006
13079,10351,294262,243821,1080,0,11:28:23.190353
13078,10348,294258,243818,1090,0,11:28:23.231589
13079,10352,294259,243813,1100,0,11:28:23.270265
13079,10351,294255,243806,1110,0,11:28:23.310244
13076,10349,294259,243819,1120,0,11:28:23.351048
13077,10353,294252,243814,1130,0,11:28:23.390316
13076,10348,294250,243812,1140,0,11:28:23.432121
13076,10346,294250,243813,1150,0,11:28:23.470243
13075,10349,294251,243811,1160,0,11:28:23.510246
13080,10352,294256,243811,1170,0,11:28:23.550514
13076,10350,294251,243809,1180,0,11:28:23.590061
13075,10349,294240,243806,1190,0,11:28:23.630885
13075,10349,294247,243813,1200,0,11:28:23.670438
13076,10351,294243,243807,1210,0,11:28:23.710360
13075,10348,294236,243806,1220,0,11:28:23.751098
13073,10344,294236,243800,1230,0,11:28:23.790160
13077,10350,294243,243806,1240,0,11:28:23.830790
13077,10351,294233,243796,1250,0,11:28:23.870379
13078,10351,294237,243807,1260,0,11:28:23.911012
13076,10349,294233,243791,1270,0,11:28:23.951019
13078,10350,294234,243799,1280,0,11:28:23.990434
13076,10349,294232,243793,1290,0,11:28:24.031147
13079,10351,294235,243795,1300,0,11:28:24.070357
13076,10349,294227,243790,1310,0,11:28:24.110083
13079,10352,294233,243793,1320,0,11:28:24.150995
13076,10348,294228,243787,1330,0,11:28:24.190371
13078,10353,294237,243793,1340,0,11:28:24.231085
13076,10348,294241,243803,1350,0,11:28:24.270687
13077,10352,294236,243796,1360,0,11:28:24.310111
13075,10349,294233,243798,1370,0,11:28:24.351015
13078,10353,294232,243798,1380,0,11:28:24.390378
13077,10349,294239,243798,1390,0,11:28:24.430993
13075,10349,294235,243799,1400,0,11:28:24.470454
13076,10350,294237,243801,1410,0,11:28:24.510292
13073,10345,294236,243797,1420,0,11:28:24.550981
13073,10346,294236,243801,1430,0,11:28:24.590339
13076,10350,294226,243795,1440,0,11:28:24.631880
13075,10350,294230,243798,1450,0,11:28:24.670998
13079,10354,294232,243796,1460,0,11:28:24.711222
13076,10352,294234,243798,1470,0,11:28:24.750974
13077,10351,294226,243794,1480,0,11:28:24.790289
13077,10352,294223,243790,1490,0,11:28:24.831363
13076,10352,294224,243790,1500,0,11:28:24.871135
13078,10356,294229,243790,1510,0,11:28:24.911330
13077,10352,294225,243791,1520,0,11:28:24.950360
13077,10349,294229,243791,1530,0,11:28:24.990367
14580,11542,294227,243795,1540,0,11:28:25.031269
14583,11543,294217,243788,1550,0,11:28:25.070350
14581,11544,294219,243787,1560,0,11:28:25.110571
14579,11540,294222,243791,1570,0,11:28:25.150797
14580,11542,294225,243789,1580,0,11:28:25.190980
14578,11539,294217,243783,1590,0,11:28:25.231562
14581,11540,294218,243782,1600,0,11:28:25.270388
14576,11534,294221,243785,1610,0,11:28:25.310362
14581,11538,294232,243796,1620,0,11:28:25.350965
14582,11541,294221,243781,1630,0,11:28:25.391138
14578,11537,294222,243791,1640,0,11:28:25.431269
14580,11539,294214,243782,1650,0,11:28:25.470289
14579,11539,294211,243780,1660,0,11:28:25.511088
14582,11540,294213,243778,1670,0,11:28:25.550248
14580,11540,294215,243781,1680,0,11:28:25.590224
14581,11542,294214,243777,1690,0,11:28:25.632165
14581,11541,294204,243772,1700,0,11:28:25.671272
14584,11543,294213,243767,1710,0,11:28:25.710956
14582,11542,294208,243779,1720,0,11:28:25.750763
14580,11541,294201,243770,1730,0,11:28:25.790275
14581,11538,294202,243764,1740,0,11:28:25.831129
14580,11542,294208,243765,1750,0,11:28:25.870606
14581,11538,294203,243765,1760,0,11:28:25.910814
14581,11540,294205,243770,1770,0,11:28:25.950665
14579,11538,294202,243774,1780,0,11:28:25.990275
14578,11536,294198,243773,1790,0,11:28:26.030730
14585,11543,294195,243774,1800,0,11:28:26.070950
14591,11538,294189,243766,1810,0,11:28:26.110033
14602,11540,294199,243772,1820,0,11:28:26.150539
14596,11542,294195,243763,1830,0,11:28:26.190798
14589,11541,294198,243766,1840,0,11:28:26.231299
14587,11542,294200,243762,1850,0,11:28:26.270302
14582,11543,294194,243769,1860,0,11:28:26.310436
14580,11539,294195,243763,1870,0,11:28:26.350597
14580,11544,294199,243767,1880,0,11:28:26.390168
14566,11546,294197,243768,1890,0,11:28:26.431511
14535,11539,294198,243768,1900,0,11:28:26.471273
14599,11542,294200,243769,1910,0,11:28:26.510284
14581,11541,294194,243765,1920,0,11:28:26.550744
14572,11540,294199,243762,1930,0,11:28:26.590907
14592,11539,294199,243768,1940,0,11:28:26.631163
14584,11544,294192,243759,1950,0,11:28:26.670316
14580,11541,294187,243761,1960,0,11:28:26.710412
14541,11541,294193,243766,1970,0,11:28:26.741412
14566,11539,294187,243755,1980,0,11:28:26.790717
14508,11536,294197,243762,1990,0,11:28:26.820155
14570,11537,294188,243759,2000,0,11:28:26.870228
14545,11537,294195,243763,2010,0,11:28:26.910314
14566,11538,294193,243763,2020,0,11:28:26.950266
14573,11542,294192,243764,2030,0,11:28:26.991159
14577,11536,294194,243762,2040,0,11:28:27.031071
16155,12742,294188,243760,2050,0,11:28:27.061312
16165,12747,294189,243758,2060,0,11:28:27.100650
16167,12747,294188,243754,2070,0,11:28:27.141409
16175,12745,294187,243759,2080,0,11:28:27.182029
16130,12746,294184,243754,2090,0,11:28:27.220910
16125,12746,294186,243749,2100,0,11:28:27.261039
16116,12746,294187,243757,2110,0,11:28:27.300248
16109,12747,294186,243754,2120,0,11:28:27.341060
16099,12745,294187,243750,2130,0,11:28:27.381035
16041,12743,294186,243755,2140,0,11:28:27.421000
16069,12745,294190,243758,2150,0,11:28:27.460409
16068,12744,294221,243753,2160,0,11:28:27.501305
16083,12745,294206,243759,2170,0,11:28:27.540336
16095,12746,294192,243750,2180,0,11:28:27.581257
16098,12744,294188,243753,2190,0,11:28:27.620535
16101,12743,294183,243748,2200,0,11:28:27.661053
16103,12746,294185,243749,2210,0,11:28:27.700450
16105,12747,294187,243757,2220,0,11:28:27.741065
16103,12745,294181,243753,2230,0,11:28:27.791237
16104,12750,294148,243745,2240,0,11:28:27.821018
16106,12753,294144,243755,2250,0,11:28:27.860404
16106,12748,294169,243750,2260,0,11:28:27.901020
16107,12750,294182,243747,2270,0,11:28:27.940342
16103,12747,294184,243749,2280,0,11:28:27.981271
16105,12746,294182,243748,2290,0,11:28:28.021076
16105,12747,294182,243750,2300,0,11:28:28.061020
16102,12746,294172,243742,2310,0,11:28:28.101258
16102,12748,294159,243748,2320,0,11:28:28.140772
16105,12749,294146,243746,2330,0,11:28:28.180935
16105,12751,294155,243750,2340,0,11:28:28.221159
16102,12743,294140,243753,2350,0,11:28:28.260531
16102,12743,294128,243739,2360,0,11:28:28.310152
16104,12744,294158,243747,2370,0,11:28:28.340124
16108,12751,294165,243742,2380,0,11:28:28.382024
16102,12742,294167,243743,2390,0,11:28:28.420510
16108,12746,294171,243741,2400,0,11:28:28.461023
16105,12748,294183,243750,2410,0,11:28:28.500563
16102,12745,294260,243751,2420,0,11:28:28.541055
16101,12744,294240,243747,2430,0,11:28:28.581578
16100,12745,294231,243740,2440,0,11:28:28.620533
16103,12748,294261,243748,2450,0,11:28:28.661418
16105,12746,294217,243742,2460,0,11:28:28.700207
16103,12749,294201,243741,2470,0,11:28:28.741461
16102,12747,294187,243740,2480,0,11:28:28.782041
16098,12744,294177,243741,2490,0,11:28:28.820372
16102,12749,294175,243737,2500,0,11:28:28.861050
16104,12749,294166,243733,2510,0,11:28:28.900891
16103,12744,294132,243726,2520,0,11:28:28.941054
16100,12741,294110,243728,2530,0,11:28:28.981240
16102,12742,294131,243726,2540,0,11:28:29.021049
16199,12819,294141,243730,2550,0,11:28:29.060416
17668,13982,294149,243720,2560,0,11:28:29.100688
17668,13984,294156,243730,2570,0,11:28:29.140406
17666,13980,294149,243720,2580,0,11:28:29.190712
17667,13985,294158,243715,2590,0,11:28:29.221435
17668,13981,294162,243722,2600,0,11:28:29.260215
17665,13979,294165,243732,2610,0,11:28:29.300943
17667,13985,294156,243724,2620,0,11:28:29.340888
17668,13981,294166,243729,2630,0,11:28:29.381156
17667,13980,294161,243727,2640,0,11:28:29.421051
17671,13987,294157,243726,2650,0,11:28:29.461431
17664,13980,294156,243726,2660,0,11:28:29.501935
17668,13986,294153,243724,2670,0,11:28:29.550987
17666,13983,294157,243725,2680,0,11:28:29.582021
17667,13984,294151,243720,2690,0,11:28:29.621242
17669,13986,294155,243733,2700,0,11:28:29.660629
17667,13984,294156,243730,2710,0,11:28:29.700911
17664,13984,294155,243733,2720,0,11:28:29.741050
17667,13983,294156,243722,2730,0,11:28:29.780768
17666,13983,294154,243726,2740,0,11:28:29.820313
17669,13986,294151,243718,2750,0,11:28:29.860416
17665,13983,294149,243721,2760,0,11:28:29.900947
17669,13987,294150,243724,2770,0,11:28:29.940889
17668,13985,294150,243726,2780,0,11:28:29.981660
17664,13982,294153,243730,2790,0,11:28:30.020299
17667,13982,294145,243721,2800,0,11:28:30.061008
17666,13982,294147,243727,2810,0,11:28:30.100913
17667,13984,294146,243730,2820,0,11:28:30.141048
17667,13984,294153,243727,2830,0,11:28:30.181686
17667,13985,294153,243724,2840,0,11:28:30.221017
17665,13986,294150,243717,2850,0,11:28:30.260430
17664,13985,294154,243724,2860,0,11:28:30.300932
17667,13987,294148,243714,2870,0,11:28:30.341445
17668,13986,294149,243719,2880,0,11:28:30.382536
17664,13982,294146,243718,2890,0,11:28:30.420446
17664,13984,294138,243710,2900,0,11:28:30.460285
17664,13984,294139,243707,2910,0,11:28:30.501179
17664,13980,294141,243715,2920,0,11:28:30.540604
17665,13978,294143,243718,2930,0,11:28:30.581089
17666,13982,294145,243718,2940,0,11:28:30.620302
17663,13980,294140,243707,2950,0,11:28:30.670485
17664,13980,294147,243714,2960,0,11:28:30.701221
17667,13981,294139,243708,2970,0,11:28:30.741429
17666,13983,294142,243710,2980,0,11:28:30.780833
17664,13982,294141,243710,2990,0,11:28:30.820366
17663,13979,294138,243711,3000,0,11:28:30.860399
17664,13981,294137,243707,3010,0,11:28:30.901039
17663,13980,294144,243715,3020,0,11:28:30.941045
17666,13982,294139,243704,3030,0,11:28:30.981172
17666,13984,294138,243710,3040,0,11:28:31.031353
17667,13982,294142,243712,3050,0,11:28:31.060224
17763,14058,294135,243712,3060,0,11:28:31.101108
19213,15208,294129,243709,3070,0,11:28:31.140636
19211,15209,294126,243705,3080,0,11:28:31.180597
19210,15204,294133,243704,3090,0,11:28:31.220180
19212,15204,294141,243707,3100,0,11:28:31.260672
19216,15210,294124,243698,3110,0,11:28:31.301221
19212,15210,294127,243702,3120,0,11:28:31.340824
19213,15208,294126,243702,3130,0,11:28:31.381136
19211,15204,294134,243702,3140,0,11:28:31.420673
19212,15205,294139,243709,3150,0,11:28:31.460604
19212,15207,294130,243707,3160,0,11:28:31.500264
19213,15207,294129,243702,3170,0,11:28:31.540684
19214,15208,294133,243707,3180,0,11:28:31.580429
19212,15206,294126,243699,3190,0,11:28:31.620718
19211,15207,294122,243691,3200,0,11:28:31.660938
19213,15211,294127,243700,3210,0,11:28:31.701219
19214,15209,294124,243699,3220,0,11:28:31.740806
19214,15210,294126,243697,3230,0,11:28:31.781131
19212,15208,294119,243693,3240,0,11:28:31.820390
19214,15206,294118,243691,3250,0,11:28:31.860296
19212,15207,294115,243687,3260,0,11:28:31.900114
19210,15207,294117,243691,3270,0,11:28:31.940589
19214,15207,294123,243696,3280,0,11:28:31.981195
19211,15207,294120,243695,3290,0,11:28:32.020442
19210,15203,294123,243692,3300,0,11:28:32.060327
19213,15208,294118,243691,3310,0,11:28:32.100221
19210,15204,294120,243692,3320,0,11:28:32.140332
19209,15205,294124,243698,3330,0,11:28:32.181454
19208,15205,294120,243694,3340,0,11:28:32.221091
19208,15201,294121,243693,3350,0,11:28:32.261089
19210,15204,294120,243693,3360,0,11:28:32.301065
19210,15204,294123,243695,3370,0,11:28:32.340776
19210,15203,294122,243700,3380,0,11:28:32.381023
19207,15203,294117,243687,3390,0,11:28:32.420357
19212,15207,294114,243692,3400,0,11:28:32.461048
19208,15200,294112,243687,3410,0,11:28:32.501009
19209,15203,294116,243690,3420,0,11:28:32.541089
19209,15202,294114,243691,3430,0,11:28:32.581399
19207,15201,294116,243693,3440,0,11:28:32.621135
19210,15204,294113,243690,3450,0,11:28:32.660492
19209,15203,294119,243687,3460,0,11:28:32.700275
19212,15205,294119,243690,3470,0,11:28:32.740307
19224,15207,294112,243690,3480,0,11:28:32.781036
19228,15206,294111,243681,3490,0,11:28:32.820411
19230,15210,294108,243682,3500,0,11:28:32.860855
19222,15207,294109,243687,3510,0,11:28:32.900955
19232,15209,294113,243688,3520,0,11:28:32.941182
19219,15207,294114,243689,3530,0,11:28:32.981385
19218,15208,294116,243690,3540,0,11:28:33.020692
19223,15206,294116,243686,3550,0,11:28:33.060273
19214,15204,294109,243685,3560,0,11:28:33.101164
19312,15284,294106,243683,3570,0,11:28:33.140175
20756,16429,294108,243674,3580,0,11:28:33.181421
20755,16426,294107,243677,3590,0,11:28:33.220712
20741,16429,294106,243681,3600,0,11:28:33.260664
20733,16431,294105,243677,3610,0,11:28:33.301263
20769,16429,294103,243683,3620,0,11:28:33.340686
20752,16430,294102,243682,3630,0,11:28:33.381555
20762,16427,294097,243672,3640,0,11:28:33.420307
20762,16424,294106,243679,3650,0,11:28:33.460332
20757,16425,294097,243678,3660,0,11:28:33.500224
20755,16426,294102,243675,3670,0,11:28:33.540795
20733,16427,294101,243676,3680,0,11:28:33.581089
20743,16427,294100,243676,3690,0,11:28:33.621101
20674,16429,294095,243675,3700,0,11:28:33.661152
20724,16430,294102,243673,3710,0,11:28:33.701176
20737,16434,294098,243674,3720,0,11:28:33.740088
20747,16431,294102,243673,3730,0,11:28:33.780872
20743,16431,294102,243675,3740,0,11:28:33.820330
20749,16430,294096,243671,3750,0,11:28:33.860851
20756,16429,294098,243673,3760,0,11:28:33.900288
20761,16429,294100,243669,3770,0,11:28:33.940512
20833,16432,294097,243671,3780,0,11:28:33.981346
20813,16433,294094,243668,3790,0,11:28:34.020317
20819,16434,294094,243667,3800,0,11:28:34.060646
20808,16434,294103,243676,3810,0,11:28:34.101138
20777,16429,294098,243676,3820,0,11:28:34.140885
20767,16428,294100,243671,3830,0,11:28:34.181316
20763,16429,294092,243659,3840,0,11:28:34.221038
20748,16430,294094,243676,3850,0,11:28:34.260429
20698,16428,294098,243673,3860,0,11:28:34.300711
20716,16424,294100,243669,3870,0,11:28:34.340349
20729,16425,294107,243667,3880,0,11:28:34.381053
20729,16426,294139,243672,3890,0,11:28:34.421234
20741,16426,294122,243675,3900,0,11:28:34.460545
20748,16428,294111,243675,3910,0,11:28:34.500454
20748,16429,294111,243666,3920,0,11:28:34.541146
20752,16430,294105,243671,3930,0,11:28:34.580782
20752,16428,294111,243675,3940,0,11:28:34.620625
20756,16431,294100,243667,3950,0,11:28:34.660369
20754,16426,294104,243669,3960,0,11:28:34.701056
20754,16424,294095,243669,3970,0,11:28:34.740313
20757,16428,294075,243674,3980,0,11:28:34.781402
20756,16430,294093,243675,3990,0,11:28:34.820456
20757,16428,294089,243672,4000,0,11:28:34.860943
20753,16428,294105,243676,4010,0,11:28:34.901175
20752,16423,294104,243673,4020,0,11:28:34.940246
20753,16428,294095,243670,4030,0,11:28:34.980462
20756,16428,294103,243665,4040,0,11:28:35.020227
20755,16424,294096,243669,4050,0,11:28:35.060199
20756,16425,294051,243660,4060,0,11:28:35.100693
20755,16428,294067,243659,4070,0,11:28:35.140281
20853,16503,294050,243657,4080,0,11:28:35.181407
22324,17671,294058,243658,4090,0,11:28:35.220229
22328,17673,294046,243661,4100,0,11:28:35.260067
22326,17668,294083,243665,4110,0,11:28:35.300961
22325,17674,294084,243659,4120,0,11:28:35.340126
22324,17670,294085,243660,4130,0,11:28:35.380975
22329,17672,294092,243662,4140,0,11:28:35.420546
22325,17674,294162,243665,4150,0,11:28:35.461037
22326,17673,294156,243667,4160,0,11:28:35.501297
22333,17675,294163,243661,4170,0,11:28:35.540987
22331,17677,294151,243659,4180,0,11:28:35.580983
22332,17678,294115,243654,4190,0,11:28:35.620787
22333,17679,294097,243645,4200,0,11:28:35.660361
22329,17675,294086,243655,4210,0,11:28:35.700529
22327,17677,294081,243654,4220,0,11:28:35.740478
22329,17677,294085,243659,4230,0,11:28:35.781191
22328,17673,294039,243658,4240,0,11:28:35.820956
22328,17674,294054,243658,4250,0,11:28:35.860091
22330,17675,294053,243658,4260,0,11:28:35.901387
22326,17670,294065,243653,4270,0,11:28:35.941009
22325,17671,294068,243648,4280,0,11:28:35.980876
22326,17671,294073,243653,4290,0,11:28:36.020316
22326,17668,294072,243656,4300,0,11:28:36.061069
22328,17674,294079,243651,4310,0,11:28:36.100975
22327,17673,294085,243654,4320,0,11:28:36.140411
22326,17673,294082,243659,4330,0,11:28:36.181182
22325,17672,294079,243662,4340,0,11:28:36.220197
22325,17671,294082,243655,4350,0,11:28:36.260615
22325,17670,294087,243656,4360,0,11:28:36.301221
22328,17672,294078,243655,4370,0,11:28:36.341098
22322,17667,294070,243648,4380,0,11:28:36.381510
22324,17668,294075,243658,4390,0,11:28:36.421172
22324,17669,294074,243647,4400,0,11:28:36.460306
22321,17664,294069,243645,4410,0,11:28:36.500200
22327,17671,294066,243641,4420,0,11:28:36.540093
22325,17671,294073,243639,4430,0,11:28:36.580881
22322,17668,294076,243646,4440,0,11:28:36.620294
22328,17672,294066,243638,4450,0,11:28:36.661184
22328,17673,294071,243643,4460,0,11:28:36.701104
22328,17674,294068,243641,4470,0,11:28:36.740656
22324,17666,294073,243646,4480,0,11:28:36.781207
22322,17664,294064,243638,4490,0,11:28:36.820476
22326,17668,294068,243639,4500,0,11:28:36.861225
22323,17669,294070,243641,4510,0,11:28:36.900798
22323,17667,294070,243643,4520,0,11:28:36.940997
22323,17670,294069,243643,4530,0,11:28:36.981362
22323,17669,294068,243642,4540,0,11:28:37.020338
22323,17671,294061,243639,4550,0,11:28:37.060176
22326,17670,294067,243646,4560,0,11:28:37.101079
22324,17669,294066,243646,4570,0,11:28:37.140275
22325,17672,294069,243641,4580,0,11:28:37.181347
22420,17744,294065,243642,4590,0,11:28:37.221032
23900,18916,294067,243637,4600,0,11:28:37.260745
23897,18913,294066,243643,4610,0,11:28:37.300348
23895,18915,294071,243650,4620,0,11:28:37.340891
23900,18922,294069,243644,4630,0,11:28:37.381142
23901,18916,294074,243640,4640,0,11:28:37.421019
23900,18920,294068,243646,4650,0,11:28:37.460485
23898,18920,294065,243640,4660,0,11:28:37.500556
23899,18916,294060,243634,4670,0,11:28:37.540408
23901,18920,294061,243632,4680,0,11:28:37.580799
23897,18913,294057,243635,4690,0,11:28:37.620915
23897,18913,294065,243639,4700,0,11:28:37.660446
23899,18920,294055,243635,4710,0,11:28:37.701043
23898,18917,294063,243633,4720,0,11:28:37.740926
23898,18914,294060,243630,4730,0,11:28:37.781383
23895,18915,294054,243632,4740,0,11:28:37.820181
23896,18915,294065,243634,4750,0,11:28:37.861075
23895,18916,294060,243633,4760,0,11:28:37.900595
23897,18912,294065,243638,4770,0,11:28:37.941038
23895,18914,294055,243628,4780,0,11:28:37.981183
23898,18913,294053,243636,4790,0,11:28:38.021369
23899,18917,294059,243631,4800,0,11:28:38.070283
23897,18915,294057,243630,4810,0,11:28:38.101416
23898,18917,294053,243629,4820,0,11:28:38.140998
23895,18910,294058,243634,4830,0,11:28:38.181618
23896,18912,294054,243629,4840,0,11:28:38.222011
23896,18913,294061,243640,4850,0,11:28:38.260471
23896,18910,294058,243636,4860,0,11:28:38.300135
23896,18913,294061,243640,4870,0,11:28:38.340246
23894,18913,294060,243638,4880,0,11:28:38.381484
23899,18919,294057,243627,4890,0,11:28:38.420366
23898,18919,294060,243633,4900,0,11:28:38.460995
23895,18917,294053,243628,4910,0,11:28:38.501397
23900,18921,294056,243632,4920,0,11:28:38.550777
23897,18914,294062,243637,4930,0,11:28:38.581986
23899,18918,294059,243626,4940,0,11:28:38.620995
23895,18917,294057,243625,4950,0,11:28:38.660403
23895,18916,294059,243628,4960,0,11:28:38.700993
23898,18918,294049,243617,4970,0,11:28:38.740263
23898,18920,294056,243636,4980,0,11:28:38.782004
23899,18918,294053,243623,4990,0,11:28:38.820379
23900,18922,294044,243617,5000,0,11:28:38.861001
23902,18920,294058,243627,5010,0,11:28:38.900979
23900,18918,294050,243616,5020,0,11:28:38.940214
23901,18919,294050,243620,5030,0,11:28:38.981133
23897,18916,294045,243619,5040,0,11:28:39.020998
23898,18918,294051,243629,5050,0,11:28:39.061012
23896,18913,294050,243623,5060,0,11:28:39.100795
23896,18912,294050,243620,5070,0,11:28:39.140955
23901,18915,294052,243622,5080,0,11:28:39.181316
23895,18908,294046,243615,5090,0,11:28:39.220170
23993,18991,294050,243621,5100,0,11:28:39.261106
25490,20174,294045,243621,5110,0,11:28:39.300745
25488,20176,294053,243630,5120,0,11:28:39.341023
25491,20176,294045,243623,5130,0,11:28:39.381142
25492,20174,294042,243617,5140,0,11:28:39.420260
25489,20175,294048,243620,5150,0,11:28:39.460925
25487,20175,294046,243623,5160,0,11:28:39.501408
25486,20172,294048,243623,5170,0,11:28:39.540967
25488,20174,294048,243622,5180,0,11:28:39.580572
25490,20176,294042,243619,5190,0,11:28:39.621011
25494,20174,294039,243619,5200,0,11:28:39.660964
25498,20174,294043,243618,5210,0,11:28:39.701154
25504,20176,294049,243625,5220,0,11:28:39.740171
25512,20174,294040,243611,5230,0,11:28:39.781106
25502,20179,294039,243621,5240,0,11:28:39.821023
25497,20179,294035,243616,5250,0,11:28:39.860400
25495,20180,294041,243617,5260,0,11:28:39.900993
25492,20181,294041,243620,5270,0,11:28:39.941264
25494,20184,294036,243620,5280,0,11:28:39.982106
25487,20178,294039,243618,5290,0,11:28:40.020533
25477,20181,294041,243620,5300,0,11:28:40.061023
25448,20180,294032,243614,5310,0,11:28:40.100372
25501,20180,294040,243617,5320,0,11:28:40.140992
25491,20180,294029,243606,5330,0,11:28:40.181130
25489,20179,294032,243614,5340,0,11:28:40.220995
25497,20177,294042,243618,5350,0,11:28:40.260267
25492,20173,294047,243618,5360,0,11:28:40.300993
25492,20178,294038,243611,5370,0,11:28:40.341379
25484,20173,294039,243616,5380,0,11:28:40.381652
25462,20175,294037,243606,5390,0,11:28:40.420402
25455,20172,294040,243618,5400,0,11:28:40.461015
25462,20178,294038,243604,5410,0,11:28:40.501240
25445,20172,294032,243613,5420,0,11:28:40.540988
25459,20171,294029,243602,5430,0,11:28:40.580850
25461,20174,294035,243611,5440,0,11:28:40.620990
25481,20176,294035,243607,5450,0,11:28:40.660357
25479,20172,294037,243612,5460,0,11:28:40.701020
25486,20175,294031,243611,5470,0,11:28:40.741265
25536,20174,294036,243613,5480,0,11:28:40.780989
25554,20174,294034,243608,5490,0,11:28:40.820358
25554,20178,294032,243602,5500,0,11:28:40.860992
25550,20182,294033,243603,5510,0,11:28:40.900792
25544,20181,294039,243611,5520,0,11:28:40.940552
25513,20177,294033,243608,5530,0,11:28:40.981102
25507,20178,294027,243609,5540,0,11:28:41.020311
25499,20174,294028,243608,5550,0,11:28:41.061283
25490,20174,294027,243606,5560,0,11:28:41.100762
25483,20175,294026,243606,5570,0,11:28:41.140992
25421,20171,294021,243599,5580,0,11:28:41.181471
25452,20174,294017,243588,5590,0,11:28:41.220454
25451,20175,294047,243602,5600,0,11:28:41.260989
25659,20329,294034,243599,5610,0,11:28:41.301413
27046,21416,294039,243602,5620,0,11:28:41.341224
27055,21419,294041,243600,5630,0,11:28:41.380977
27057,21421,294031,243607,5640,0,11:28:41.420961
27061,21419,294038,243607,5650,0,11:28:41.461270
27061,21416,294026,243605,5660,0,11:28:41.500989
27060,21419,294023,243597,5670,0,11:28:41.540202
27068,21427,294024,243599,5680,0,11:28:41.581700
27061,21423,293992,243601,5690,0,11:28:41.621311
27060,21421,293998,243599,5700,0,11:28:41.660988
27058,21419,294017,243599,5710,0,11:28:41.700155
27061,21422,294038,243597,5720,0,11:28:41.740989
27060,21420,293998,243589,5730,0,11:28:41.781046
27062,21420,294025,243602,5740,0,11:28:41.820971
27062,21420,294032,243604,5750,0,11:28:41.860358
27060,21420,294027,243606,5760,0,11:28:41.901069
27061,21421,294023,243599,5770,0,11:28:41.941223
27062,21422,293964,243593,5780,0,11:28:41.981238
27059,21418,294001,243592,5790,0,11:28:42.020194
27058,21416,294001,243594,5800,0,11:28:42.061001
27059,21420,293959,243585,5810,0,11:28:42.100214
27060,21423,293986,243596,5820,0,11:28:42.141011
27059,21417,293982,243598,5830,0,11:28:42.181100
27065,21425,293994,243593,5840,0,11:28:42.221019
27062,21421,294012,243596,5850,0,11:28:42.261044
27061,21421,294010,243600,5860,0,11:28:42.300675
27060,21423,294007,243591,5870,0,11:28:42.340247
27063,21424,294083,243592,5880,0,11:28:42.381335
27054,21419,294056,243583,5890,0,11:28:42.420304
27062,21425,294040,243582,5900,0,11:28:42.461009
27062,21423,294041,243582,5910,0,11:28:42.519587
27057,21417,294035,243580,5920,0,11:28:42.540532
27057,21419,294002,243580,5930,0,11:28:42.581423
27056,21418,294003,243582,5940,0,11:28:42.621316
27055,21419,293995,243582,5950,0,11:28:42.660211
27061,21421,293980,243574,5960,0,11:28:42.700715
27057,21417,293909,243570,5970,0,11:28:42.741012
27060,21421,293956,243579,5980,0,11:28:42.780947
27058,21419,293957,243568,5990,0,11:28:42.821249
27058,21419,293975,243578,6000,0,11:28:42.860984
27059,21418,293978,243579,6010,0,11:28:42.900663
27056,21418,293981,243578,6020,0,11:28:42.940845
27055,21416,293994,243583,6030,0,11:28:42.981034
27054,21411,293995,243576,6040,0,11:28:43.020312
27054,21412,293979,243579,6050,0,11:28:43.060370
27054,21413,293991,243584,6060,0,11:28:43.100984
27055,21412,293985,243575,6070,0,11:28:43.140154
27056,21419,293987,243582,6080,0,11:28:43.182292
27055,21413,293982,243580,6090,0,11:28:43.221306
27056,21419,293979,243572,6100,0,11:28:43.261012
27055,21417,293983,243574,6110,0,11:28:43.301202
27256,21581,293974,243572,6120,0,11:28:43.340987
28639,22675,293978,243573,6130,0,11:28:43.381165
28646,22675,293982,243573,6140,0,11:28:43.421020
28645,22679,293984,243580,6150,0,11:28:43.460271
28641,22672,293985,243576,6160,0,11:28:43.500656
28639,22670,293982,243578,6170,0,11:28:43.540968
28641,22672,293984,243573,6180,0,11:28:43.580986
28638,22671,293974,243563,6190,0,11:28:43.620214
28646,22674,293976,243561,6200,0,11:28:43.660194
28640,22670,293979,243563,6210,0,11:28:43.700405
28643,22675,293979,243567,6220,0,11:28:43.741013
28640,22672,293983,243567,6230,0,11:28:43.780889
28641,22670,293981,243564,6240,0,11:28:43.820983
28641,22668,293986,243576,6250,0,11:28:43.870262
28638,22666,293980,243565,6260,0,11:28:43.900982
28637,22669,293989,243571,6270,0,11:28:43.940370
28637,22666,293984,243569,6280,0,11:28:43.980982
28639,22667,293987,243574,6290,0,11:28:44.020364
28637,22668,293985,243569,6300,0,11:28:44.061278
28638,22669,293981,243564,6310,0,11:28:44.101121
28639,22670,293985,243572,6320,0,11:28:44.140354
28640,22673,293988,243570,6330,0,11:28:44.180955
28643,22674,293988,243566,6340,0,11:28:44.220434
28640,22672,293988,243566,6350,0,11:28:44.260501
28637,22668,293989,243572,6360,0,11:28:44.300611
28640,22670,293987,243567,6370,0,11:28:44.340435
28640,22671,293980,243561,6380,0,11:28:44.371157
28640,22670,293983,243555,6390,0,11:28:44.420216
28639,22667,293977,243561,6400,0,11:28:44.460846
28639,22671,293982,243556,6410,0,11:28:44.501167
28643,22676,293980,243558,6420,0,11:28:44.541023
28637,22669,293986,243566,6430,0,11:28:44.581008
28636,22665,293979,243559,6440,0,11:28:44.610779
28640,22673,293979,243558,6450,0,11:28:44.650807
28639,22673,293984,243566,6460,0,11:28:44.690463
28637,22669,293974,243561,6470,0,11:28:44.730653
28638,22668,293971,243553,6480,0,11:28:44.771106
28640,22671,293970,243551,6490,0,11:28:44.811414
28640,22671,293968,243548,6500,0,11:28:44.851461
28639,22671,293972,243554,6510,0,11:28:44.891464
28641,22673,293971,243554,6520,0,11:28:44.931065
28637,22667,293967,243550,6530,0,11:28:44.971370
28639,22673,293964,243549,6540,0,11:28:45.011467
28641,22672,293975,243555,6550,0,11:28:45.050799
28642,22673,293973,243557,6560,0,11:28:45.090346
28638,22673,293967,243558,6570,0,11:28:45.131143
28637,22672,293961,243551,6580,0,11:28:45.170922
28636,22672,293964,243554,6590,0,11:28:45.211416
28636,22673,293961,243555,6600,0,11:28:45.250635
28633,22669,293953,243545,6610,0,11:28:45.290333
28638,22669,293959,243552,6620,0,11:28:45.340978
28828,22824,293963,243558,6630,0,11:28:45.370170
30148,23871,293960,243551,6640,0,11:28:45.411374
30150,23866,293964,243558,6650,0,11:28:45.460391
30148,23866,293955,243550,6660,0,11:28:45.490346
30149,23864,293961,243550,6670,0,11:28:45.530823
30148,23870,293950,243543,6680,0,11:28:45.570223
30149,23866,293953,243547,6690,0,11:28:45.610308
30149,23864,293957,243547,6700,0,11:28:45.650610
30145,23866,293954,243546,6710,0,11:28:45.691432
30146,23861,293951,243550,6720,0,11:28:45.730810
30146,23865,293948,243540,6730,0,11:28:45.770383
30149,23868,293950,243542,6740,0,11:28:45.811466
30148,23864,293953,243543,6750,0,11:28:45.850894
30148,23865,293957,243544,6760,0,11:28:45.890129
30149,23866,293954,243539,6770,0,11:28:45.930958
30143,23861,293956,243544,6780,0,11:28:45.970370
30146,23862,293960,243551,6790,0,11:28:46.010253
30148,23864,293952,243548,6800,0,11:28:46.051280
30150,23867,293959,243542,6810,0,11:28:46.091441
30151,23868,293960,243541,6820,0,11:28:46.130870
30148,23868,293954,243541,6830,0,11:28:46.170275
30149,23867,293961,243542,6840,0,11:28:46.211447
30151,23866,293962,243547,6850,0,11:28:46.251185
30186,23871,293952,243536,6860,0,11:28:46.291090
30168,23872,293950,243539,6870,0,11:28:46.331135
30165,23871,293953,243542,6880,0,11:28:46.370188
30160,23866,293961,243542,6890,0,11:28:46.411002
30151,23861,293954,243538,6900,0,11:28:46.451232
30152,23868,293962,243540,6910,0,11:28:46.490157
30150,23866,293956,243541,6920,0,11:28:46.531012
30114,23862,293949,243541,6930,0,11:28:46.580654
30148,23867,293951,243535,6940,0,11:28:46.610671
30119,23867,293950,243539,6950,0,11:28:46.651327
30158,23867,293953,243535,6960,0,11:28:46.690395
30167,23870,293947,243530,6970,0,11:28:46.731030
30138,23866,293956,243536,6980,0,11:28:46.770389
30158,23871,293952,243536,6990,0,11:28:46.811176
30157,23869,293962,243537,7000,0,11:28:46.851335
30139,23865,293953,243529,7010,0,11:28:46.891318
30117,23864,293950,243529,7020,0,11:28:46.932023
30131,23861,293945,243529,7030,0,11:28:46.970508
30111,23867,293949,243527,7040,0,11:28:47.010184
30105,23860,293948,243528,7050,0,11:28:47.050270
30122,23858,293951,243535,7060,0,11:28:47.091403
30134,23862,293943,243533,7070,0,11:28:47.130859
30136,23866,293951,243533,7080,0,11:28:47.170245
30148,23866,293955,243543,7090,0,11:28:47.210990
30146,23866,293954,243543,7100,0,11:28:47.250380
30233,23870,293951,243536,7110,0,11:28:47.290853
30211,23866,293948,243533,7120,0,11:28:47.330378
30208,23867,293942,243531,7130,0,11:28:47.370717
30422,24027,293947,243531,7140,0,11:28:47.411449
31783,25135,293948,243536,7150,0,11:28:47.450391
31768,25127,293950,243531,7160,0,11:28:47.491346
31757,25125,293945,243533,7170,0,11:28:47.531336
31745,25128,293950,243536,7180,0,11:28:47.570668
31692,25125,293954,243536,7190,0,11:28:47.610433
31693,25126,293963,243540,7200,0,11:28:47.651437
31711,25130,293956,243537,7210,0,11:28:47.690997
31711,25124,293980,243539,7220,0,11:28:47.730980
31735,25131,293967,243530,7230,0,11:28:47.770415
31734,25123,293957,243536,7240,0,11:28:47.811441
31743,25128,293953,243532,7250,0,11:28:47.851031
31746,25128,293947,243534,7260,0,11:28:47.891005
31743,25126,293941,243524,7270,0,11:28:47.931092
31741,25129,293936,243521,7280,0,11:28:47.971018
31741,25125,293895,243528,7290,0,11:28:48.011466
31744,25126,293910,243525,7300,0,11:28:48.050580
31738,25120,293962,243535,7310,0,11:28:48.090232
31745,25130,293935,243526,7320,0,11:28:48.131001
31740,25126,293946,243537,7330,0,11:28:48.171791
31741,25128,293947,243527,7340,0,11:28:48.211263
31742,25128,293942,243521,7350,0,11:28:48.250994
31743,25129,293944,243530,7360,0,11:28:48.290818
31743,25130,293907,243518,7370,0,11:28:48.331181
31742,25130,293915,243520,7380,0,11:28:48.371332
31742,25127,293893,243521,7390,0,11:28:48.410221
31745,25131,293898,243522,7400,0,11:28:48.451304
31746,25130,293914,243530,7410,0,11:28:48.491420
31745,25131,293916,243522,7420,0,11:28:48.530448
31746,25129,293928,243515,7430,0,11:28:48.570264
31741,25124,293932,243522,7440,0,11:28:48.611074
31746,25130,293959,243528,7450,0,11:28:48.650161
31744,25131,294011,243532,7460,0,11:28:48.700389
31741,25130,294004,243523,7470,0,11:28:48.730680
31739,25125,293979,243525,7480,0,11:28:48.770424
31745,25128,293972,243529,7490,0,11:28:48.810837
31744,25129,293960,243528,7500,0,11:28:48.850755
31744,25128,293947,243524,7510,0,11:28:48.891328
31740,25122,293935,243528,7520,0,11:28:48.930878
31741,25128,293875,243529,7530,0,11:28:48.970310
31739,25121,293888,243522,7540,0,11:28:49.010220
31747,25130,293915,243525,7550,0,11:28:49.051341
31745,25131,293916,243519,7560,0,11:28:49.090244
31744,25125,293929,243515,7570,0,11:28:49.131601
31747,25135,293933,243519,7580,0,11:28:49.170334
31742,25129,293932,243521,7590,0,11:28:49.210700
31743,25128,293936,243526,7600,0,11:28:49.250310
31741,25123,293932,243522,7610,0,11:28:49.290352
31742,25126,293937,243517,7620,0,11:28:49.330850
31747,25129,293942,243526,7630,0,11:28:49.370394
31737,25121,293937,243516,7640,0,11:28:49.410923
31942,25284,293937,243519,7650,0,11:28:49.450165
33336,26381,293938,243515,7660,0,11:28:49.490290
33330,26382,293933,243514,7670,0,11:28:49.530697
33333,26382,293927,243508,7680,0,11:28:49.570214
33334,26385,293934,243510,7690,0,11:28:49.610735
33334,26385,293935,243515,7700,0,11:28:49.650918
33334,26387,293935,243516,7710,0,11:28:49.690399
33337,26388,293936,243509,7720,0,11:28:49.730832
33335,26387,293919,243501,7730,0,11:28:49.771408
33337,26388,293929,243513,7740,0,11:28:49.810609
33329,26380,293926,243509,7750,0,11:28:49.850425
33335,26382,293928,243515,7760,0,11:28:49.890866
33333,26381,293922,243507,7770,0,11:28:49.930980
33332,26384,293926,243504,7780,0,11:28:49.971401
33334,26388,293924,243501,7790,0,11:28:50.010535
33335,26387,293924,243508,7800,0,11:28:50.051360
33338,26389,293921,243504,7810,0,11:28:50.091426
33331,26387,293919,243497,7820,0,11:28:50.130958
33333,26388,293917,243506,7830,0,11:28:50.170331
33337,26389,293925,243511,7840,0,11:28:50.211005
33338,26390,293923,243510,7850,0,11:28:50.251076
33338,26389,293925,243509,7860,0,11:28:50.290282
33334,26386,293926,243509,7870,0,11:28:50.330973
33334,26386,293930,243514,7880,0,11:28:50.371406
33336,26393,293931,243521,7890,0,11:28:50.430730
33333,26393,293924,243517,7900,0,11:28:50.450734
33333,26391,293922,243513,7910,0,11:28:50.490553
33334,26392,293922,243509,7920,0,11:28:50.530628
33339,26393,293923,243514,7930,0,11:28:50.570600
33332,26386,293926,243509,7940,0,11:28:50.610409
33336,26390,293918,243507,7950,0,11:28:50.650609
33332,26388,293921,243508,7960,0,11:28:50.691153
33331,26388,293910,243501,7970,0,11:28:50.731103
33331,26387,293915,243501,7980,0,11:28:50.770118
33331,26384,293916,243503,7990,0,11:28:50.811459
33328,26383,293912,243498,8000,0,11:28:50.850333
33325,26380,293912,243499,8010,0,11:28:50.891079
33329,26380,293911,243494,8020,0,11:28:50.931059
33331,26385,293916,243505,8030,0,11:28:50.970874
33333,26384,293918,243503,8040,0,11:28:51.010555
33328,26380,293912,243498,8050,0,11:28:51.050965
33330,26381,293913,243500,8060,0,11:28:51.090205
33328,26381,293908,243493,8070,0,11:28:51.131358
33330,26385,293911,243499,8080,0,11:28:51.170423
33329,26384,293909,243495,8090,0,11:28:51.211269
33329,26384,293906,243494,8100,0,11:28:51.250623
33326,26383,293918,243494,8110,0,11:28:51.290439
33326,26380,293911,243501,8120,0,11:28:51.330956
33327,26379,293913,243497,8130,0,11:28:51.371181
33329,26379,293906,243488,8140,0,11:28:51.411108
33331,26380,293908,243494,8150,0,11:28:51.450610
33535,26545,293904,243490,8160,0,11:28:51.490771
34955,27668,293911,243495,8170,0,11:28:51.531283
34957,27671,293913,243495,8180,0,11:28:51.570318
34956,27672,293910,243495,8190,0,11:28:51.611453
34953,27666,293912,243498,8200,0,11:28:51.650785
34955,27674,293915,243495,8210,0,11:28:51.691000
34954,27671,293912,243493,8220,0,11:28:51.730958
34957,27674,293905,243489,8230,0,11:28:51.770281
34958,27673,293899,243494,8240,0,11:28:51.811420
34960,27681,293900,243492,8250,0,11:28:51.850570
34955,27673,293907,243501,8260,0,11:28:51.890907
34960,27676,293909,243501,8270,0,11:28:51.930959
34958,27673,293910,243495,8280,0,11:28:51.971455
34959,27676,293911,243498,8290,0,11:28:52.010440
34959,27679,293904,243489,8300,0,11:28:52.050932
34957,27674,293911,243493,8310,0,11:28:52.090803
34957,27678,293912,243501,8320,0,11:28:52.130925
34958,27678,293907,243499,8330,0,11:28:52.170907
34960,27679,293903,243492,8340,0,11:28:52.210737
34957,27674,293906,243491,8350,0,11:28:52.251053
34959,27678,293902,243494,8360,0,11:28:52.290739
34956,27672,293900,243486,8370,0,11:28:52.331890
34953,27668,293903,243491,8380,0,11:28:52.370388
34954,27671,293910,243497,8390,0,11:28:52.411404
34952,27665,293911,243496,8400,0,11:28:52.450516
34959,27667,293903,243488,8410,0,11:28:52.491269
34955,27668,293904,243482,8420,0,11:28:52.531936
34949,27666,293904,243492,8430,0,11:28:52.571392
34959,27672,293904,243494,8440,0,11:28:52.611454
34958,27673,293910,243495,8450,0,11:28:52.650369
34957,27669,293905,243486,8460,0,11:28:52.690368
34974,27668,293904,243491,8470,0,11:28:52.731534
34980,27670,293898,243482,8480,0,11:28:52.770273
34970,27671,293900,243480,8490,0,11:28:52.811422
34973,27676,293898,243484,8500,0,11:28:52.850972
34963,27672,293894,243481,8510,0,11:28:52.891427
34961,27671,293901,243485,8520,0,11:28:52.930940
34959,27672,293901,243486,8530,0,11:28:52.970814
34960,27674,293899,243482,8540,0,11:28:53.011429
34954,27672,293899,243479,8550,0,11:28:53.050316
34906,27668,293896,243485,8560,0,11:28:53.090416
34932,27672,293900,243472,8570,0,11:28:53.130945
34963,27669,293896,243480,8580,0,11:28:53.170594
34975,27676,293897,243485,8590,0,11:28:53.210399
34959,27674,293899,243487,8600,0,11:28:53.251054
34967,27679,293899,243486,8610,0,11:28:53.290594
34966,27677,293903,243485,8620,0,11:28:53.331420
34958,27673,293903,243487,8630,0,11:28:53.371148
34931,27673,293903,243481,8640,0,11:28:53.411270
34946,27678,293900,243484,8650,0,11:28:53.450380
34937,27674,293900,243476,8660,0,11:28:53.490877
35193,27904,293903,243489,8670,0,11:28:53.531763
36527,28948,293907,243494,8680,0,11:28:53.570742
36544,28945,293899,243480,8690,0,11:28:53.610474
36551,28948,293896,243480,8700,0,11:28:53.651192
36565,28950,293900,243484,8710,0,11:28:53.690359
36571,28952,293897,243484,8720,0,11:28:53.731252
36662,28948,293895,243477,8730,0,11:28:53.770890
36636,28954,293894,243482,8740,0,11:28:53.811137
36637,28950,293899,243484,8750,0,11:28:53.850499
36624,28948,293897,243480,8760,0,11:28:53.891320
36586,28946,293897,243475,8770,0,11:28:53.931077
36585,28948,293895,243473,8780,0,11:28:53.970965
36571,28946,293887,243474,8790,0,11:28:54.010291
36542,28945,293896,243477,8800,0,11:28:54.050934
36499,28939,293895,243476,8810,0,11:28:54.090230
36524,28945,293906,243473,8820,0,11:28:54.131122
36542,28945,293926,243484,8830,0,11:28:54.170937
36552,28944,293914,243472,8840,0,11:28:54.210096
36564,28949,293905,243481,8850,0,11:28:54.250443
36563,28939,293898,243477,8860,0,11:28:54.290362
36568,28948,293894,243477,8870,0,11:28:54.331269
36564,28938,293891,243472,8880,0,11:28:54.370713
36568,28943,293884,243466,8890,0,11:28:54.410381
36566,28944,293846,243467,8900,0,11:28:54.451384
36568,28947,293844,243471,8910,0,11:28:54.490415
36567,28950,293887,243466,8920,0,11:28:54.530538
36566,28952,293899,243472,8930,0,11:28:54.570372
36570,28946,293895,243478,8940,0,11:28:54.610591
36565,28944,293897,243474,8950,0,11:28:54.650646
36563,28942,293893,243468,8960,0,11:28:54.690455
36568,28945,293872,243471,8970,0,11:28:54.730823
36565,28947,293855,243469,8980,0,11:28:54.770190
36564,28943,293867,243473,8990,0,11:28:54.810928
36563,28941,293854,243474,9000,0,11:28:54.860954
36564,28943,293839,243472,9010,0,11:28:54.890421
36565,28943,293874,243469,9020,0,11:28:54.930764
36563,28941,293875,243462,9030,0,11:28:54.970442
36567,28946,293877,243466,9040,0,11:28:55.010273
36564,28940,293918,243469,9050,0,11:28:55.051006
36565,28941,293958,243470,9060,0,11:28:55.090451
36560,28940,293969,243470,9070,0,11:28:55.131612
36560,28938,293946,243463,9080,0,11:28:55.170446
36560,28939,293914,243467,9090,0,11:28:55.211204
36567,28941,293904,243456,9100,0,11:28:55.250351
36562,28941,293891,243465,9110,0,11:28:55.290438
36564,28944,293885,243467,9120,0,11:28:55.330601
36563,28943,293859,243464,9130,0,11:28:55.370447
36561,28943,293823,243467,9140,0,11:28:55.410412
36564,28948,293844,243471,9150,0,11:28:55.450172
36570,28947,293855,243467,9160,0,11:28:55.490656
36564,28944,293866,243458,9170,0,11:28:55.540892
36872,29191,293872,243466,9180,0,11:28:55.570713
38183,30228,293878,243463,9190,0,11:28:55.610086
38178,30223,293876,243463,9200,0,11:28:55.660722
38181,30225,293878,243464,9210,0,11:28:55.690902
38182,30226,293885,243468,9220,0,11:28:55.730661
38185,30227,293884,243475,9230,0,11:28:55.770573
38186,30227,293886,243471,9240,0,11:28:55.810415
38181,30225,293877,243461,9250,0,11:28:55.850496
38179,30221,293882,243471,9260,0,11:28:55.890414
38186,30224,293882,243463,9270,0,11:28:55.930808
38181,30226,293885,243467,9280,0,11:28:55.970229
38181,30223,293876,243457,9290,0,11:28:56.021131
38181,30222,293885,243465,9300,0,11:28:56.050430
38187,30227,293886,243465,9310,0,11:28:56.090773
38182,30223,293882,243462,9320,0,11:28:56.130859
38184,30220,293899,243466,9330,0,11:28:56.170394
38185,30222,293894,243469,9340,0,11:28:56.210230
38188,30226,293891,243465,9350,0,11:28:56.250507
38185,30225,293882,243463,9360,0,11:28:56.290273
38182,30223,293882,243463,9370,0,11:28:56.330887
38182,30223,293883,243464,9380,0,11:28:56.370468
38179,30221,293882,243463,9390,0,11:28:56.410559
38179,30224,293885,243464,9400,0,11:28:56.450458
38182,30229,293881,243466,9410,0,11:28:56.490390
38181,30225,293879,243461,9420,0,11:28:56.530421
38182,30226,293877,243457,9430,0,11:28:56.570579
38180,30223,293875,243463,9440,0,11:28:56.610033
38179,30223,293875,243455,9450,0,11:28:56.650469
38180,30224,293876,243455,9460,0,11:28:56.690312
38181,30226,293879,243459,9470,0,11:28:56.731552
38179,30220,293875,243458,9480,0,11:28:56.770910
38179,30217,293876,243452,9490,0,11:28:56.810313
38177,30220,293872,243452,9500,0,11:28:56.850470
38177,30216,293870,243452,9510,0,11:28:56.890427
38182,30226,293866,243456,9520,0,11:28:56.930915
38182,30228,293862,243451,9530,0,11:28:56.971129
38179,30222,293869,243447,9540,0,11:28:57.010413
38177,30217,293863,243443,9550,0,11:28:57.050210
38175,30218,293865,243447,9560,0,11:28:57.090183
38183,30228,293869,243454,9570,0,11:28:57.130797
38174,30218,293861,243451,9580,0,11:28:57.170947
38175,30215,293864,243449,9590,0,11:28:57.211019
38179,30224,293867,243457,9600,0,11:28:57.250243
38179,30220,293863,243449,9610,0,11:28:57.290869
38181,30220,293865,243455,9620,0,11:28:57.330593
38181,30222,293866,243456,9630,0,11:28:57.371243
38171,30211,293859,243450,9640,0,11:28:57.410594
38175,30218,293868,243450,9650,0,11:28:57.451046
38179,30222,293870,243461,9660,0,11:28:57.490780
38178,30224,293863,243449,9670,0,11:28:57.530859
38184,30228,293866,243447,9680,0,11:28:57.570454
38483,30469,293868,243451,9690,0,11:28:57.610406
39783,31493,293869,243451,9700,0,11:28:57.651303
39782,31495,293859,243441,9710,0,11:28:57.691368
39783,31494,293865,243452,9720,0,11:28:57.730377
39782,31495,293862,243450,9730,0,11:28:57.770281
39785,31500,293867,243449,9740,0,11:28:57.820911
39778,31491,293863,243453,9750,0,11:28:57.850659
39782,31492,293866,243448,9760,0,11:28:57.890251
39779,31490,293869,243459,9770,0,11:28:57.931114
39782,31490,293860,243442,9780,0,11:28:57.970297
39783,31492,293863,243435,9790,0,11:28:58.010463
39785,31493,293862,243434,9800,0,11:28:58.051220
39780,31491,293856,243433,9810,0,11:28:58.090416
39776,31485,293860,243438,9820,0,11:28:58.130855
39778,31489,293857,243441,9830,0,11:28:58.170628
39777,31489,293853,243431,9840,0,11:28:58.210308
39781,31492,293854,243432,9850,0,11:28:58.251394
39783,31492,293857,243440,9860,0,11:28:58.290207
39781,31491,293860,243442,9870,0,11:28:58.331087
39780,31484,293860,243440,9880,0,11:28:58.370968
39781,31487,293862,243446,9890,0,11:28:58.410425
39775,31483,293852,243440,9900,0,11:28:58.451096
39778,31484,293855,243441,9910,0,11:28:58.490467
39775,31488,293852,243435,9920,0,11:28:58.541563
39774,31489,293848,243439,9930,0,11:28:58.571339
39780,31489,293862,243442,9940,0,11:28:58.610388
39779,31491,293850,243440,9950,0,11:28:58.650341
39775,31487,293850,243435,9960,0,11:28:58.690435
39777,31485,293854,243438,9970,0,11:28:58.731339
39779,31489,293857,243439,9980,0,11:28:58.770426
39779,31492,293859,243438,9990,0,11:28:58.810215
39783,31490,293858,243435,10000,0,11:28:58.851187
39783,31490,293852,243440,10010,0,11:28:58.890429
39783,31489,293852,243435,10020,0,11:28:58.930839
39801,31488,293854,243432,10030,0,11:28:58.970460
39808,31492,293849,243438,10040,0,11:28:59.010411
39809,31491,293853,243433,10050,0,11:28:59.060474
39803,31491,293856,243435,10060,0,11:28:59.090423
39791,31489,293848,243433,10070,0,11:28:59.130602
39790,31490,293855,243434,10080,0,11:28:59.170619
39787,31493,293860,243446,10090,0,11:28:59.210439
39785,31493,293851,243431,10100,0,11:28:59.250370
39757,31487,293850,243430,10110,0,11:28:59.291336
39759,31495,293851,243431,10120,0,11:28:59.330833
39762,31492,293852,243436,10130,0,11:28:59.370395
39776,31494,293849,243434,10140,0,11:28:59.410213
39789,31493,293851,243434,10150,0,11:28:59.450427
39785,31491,293846,243434,10160,0,11:28:59.490426
39783,31491,293846,243426,10170,0,11:28:59.530820
39788,31491,293846,243431,10180,0,11:28:59.571331
39779,31492,293848,243437,10190,0,11:28:59.610425
40048,31723,293845,243435,10200,0,11:28:59.650658
41219,32759,293839,243429,10210,0,11:28:59.690899
41244,32763,293842,243433,10220,0,11:28:59.730448
41238,32767,293848,243432,10230,0,11:28:59.770998
41207,32766,293840,243428,10240,0,11:28:59.810428
41250,32764,293846,243434,10250,0,11:28:59.850853
41243,32759,293842,243428,10260,0,11:28:59.890469
41240,32762,293835,243426,10270,0,11:28:59.930756
41261,32758,293846,243429,10280,0,11:28:59.971112
41262,32762,293846,243436,10290,0,11:29:00.010855
41337,32766,293844,243434,10300,0,11:29:00.050475
41315,32763,293841,243433,10310,0,11:29:00.090313
41365,32769,293839,243430,10320,0,11:29:00.131151
41320,32773,293835,243426,10330,0,11:29:00.170823
41306,32767,293843,243431,10340,0,11:29:00.210601
41302,32770,293833,243423,10350,0,11:29:00.250790
41282,32768,293834,243422,10360,0,11:29:00.291306
41268,32764,293830,243419,10370,0,11:29:00.330816
41269,32764,293835,243419,10380,0,11:29:00.370446
41264,32765,293840,243423,10390,0,11:29:00.410424
41213,32765,293838,243423,10400,0,11:29:00.450778
41206,32763,293846,243427,10410,0,11:29:00.490474
41233,32764,293846,243423,10420,0,11:29:00.530545
41235,32761,293862,243421,10430,0,11:29:00.570605
41252,32763,293848,243411,10440,0,11:29:00.610460
41261,32765,293845,243422,10450,0,11:29:00.650878
41263,32763,293833,243415,10460,0,11:29:00.690350
41266,32762,293831,243416,10470,0,11:29:00.731447
41265,32763,293837,243418,10480,0,11:29:00.771386
41266,32759,293832,243420,10490,0,11:29:00.811237
41259,32757,293812,243416,10500,0,11:29:00.851259
41263,32760,293799,243416,10510,0,11:29:00.890940
41259,32760,293834,243420,10520,0,11:29:00.931302
41262,32763,293834,243423,10530,0,11:29:00.971419
41262,32762,293825,243418,10540,0,11:29:01.010422
41263,32766,293833,243421,10550,0,11:29:01.051016
41262,32761,293826,243416,10560,0,11:29:01.090477
41262,32765,293809,243417,10570,0,11:29:01.131052
41260,32760,293784,243412,10580,0,11:29:01.171133
41266,32766,293816,243416,10590,0,11:29:01.210416
41261,32763,293775,243417,10600,0,11:29:01.250349
41262,32766,293778,243419,10610,0,11:29:01.291476
41267,32766,293812,243412,10620,0,11:29:01.340968
41265,32761,293822,243415,10630,0,11:29:01.370603
41265,32763,293829,243413,10640,0,11:29:01.410221
41263,32764,293824,243414,10650,0,11:29:01.450951
41266,32767,293833,243413,10660,0,11:29:01.491619
41262,32761,293911,243414,10670,0,11:29:01.531770
41265,32767,293890,243414,10680,0,11:29:01.591360
41262,32762,293917,243409,10690,0,11:29:01.610422
41265,32763,293867,243415,10700,0,11:29:01.650452
41567,33001,293848,243410,10710,0,11:29:01.691316
42907,34064,293844,243414,10720,0,11:29:01.730809
42906,34059,293829,243407,10730,0,11:29:01.771013
42904,34063,293819,243404,10740,0,11:29:01.810341
42903,34058,293778,243406,10750,0,11:29:01.850317
42905,34062,293773,243408,10760,0,11:29:01.880788
42906,34061,293783,243414,10770,0,11:29:01.940290
42909,34063,293794,243411,10780,0,11:29:01.970401
42910,34066,293815,243411,10790,0,11:29:02.010479
42909,34064,293814,243410,10800,0,11:29:02.050209
42908,34064,293833,243415,10810,0,11:29:02.080770
42908,34062,293827,243414,10820,0,11:29:02.121286
42905,34061,293828,243417,10830,0,11:29:02.160446
42908,34065,293819,243407,10840,0,11:29:02.200478
42904,34066,293817,243410,10850,0,11:29:02.241193
42906,34063,293823,243413,10860,0,11:29:02.281068
42912,34068,293823,243404,10870,0,11:29:02.320498
42906,34065,293821,243412,10880,0,11:29:02.360391
42908,34062,293822,243410,10890,0,11:29:02.400956
42906,34065,293824,243414,10900,0,11:29:02.440726
42905,34062,293819,243408,10910,0,11:29:02.481058
42907,34065,293820,243402,10920,0,11:29:02.520462
42903,34056,293818,243407,10930,0,11:29:02.561251
42907,34067,293815,243407,10940,0,11:29:02.600456
42908,34064,293818,243400,10950,0,11:29:02.650734
42905,34063,293816,243401,10960,0,11:29:02.681455
42909,34064,293817,243400,10970,0,11:29:02.721336
42912,34068,293822,243403,10980,0,11:29:02.761024
42902,34064,293812,243403,10990,0,11:29:02.801065
42905,34062,293821,243411,11000,0,11:29:02.841445
42898,34056,293816,243405,11010,0,11:29:02.881772
42903,34061,293813,243402,11020,0,11:29:02.920388
42905,34063,293815,243406,11030,0,11:29:02.961164
42897,34053,293818,243409,11040,0,11:29:03.001625
42904,34064,293810,243399,11050,0,11:29:03.040042
42905,34063,293810,243405,11060,0,11:29:03.080733
42905,34066,293808,243402,11070,0,11:29:03.120445
42905,34064,293808,243385,11080,0,11:29:03.161199
42901,34057,293802,243387,11090,0,11:29:03.200406
42905,34061,293806,243392,11100,0,11:29:03.240543
42902,34060,293805,243393,11110,0,11:29:03.281299
42910,34065,293801,243396,11120,0,11:29:03.320454
42903,34061,293802,243386,11130,0,11:29:03.361299
42906,34060,293804,243387,11140,0,11:29:03.400508
42904,34059,293811,243394,11150,0,11:29:03.440705
42904,34059,293809,243399,11160,0,11:29:03.480575
42901,34061,293805,243386,11170,0,11:29:03.521146
42902,34062,293806,243395,11180,0,11:29:03.560755
42900,34059,293798,243391,11190,0,11:29:03.600305
42901,34057,293804,243401,11200,0,11:29:03.640972
42898,34056,293806,243393,11210,0,11:29:03.681319
43198,34297,293801,243390,11220,0,11:29:03.720183
44518,35339,293803,243391,11230,0,11:29:03.760416
44523,35342,293808,243394,11240,0,11:29:03.800284
44522,35342,293805,243394,11250,0,11:29:03.841292
44529,35345,293804,243392,11260,0,11:29:03.880762
44521,35342,293803,243399,11270,0,11:29:03.920314
44523,35345,293805,243392,11280,0,11:29:03.960914
44519,35337,293806,243397,11290,0,11:29:04.000403
44523,35339,293807,243399,11300,0,11:29:04.041308
44525,35343,293808,243393,11310,0,11:29:04.081754
44522,35340,293807,243400,11320,0,11:29:04.120193
44521,35342,293799,243388,11330,0,11:29:04.161475
44521,35342,293800,243396,11340,0,11:29:04.201029
44522,35342,293805,243395,11350,0,11:29:04.241063
44521,35344,293801,243392,11360,0,11:29:04.281755
44518,35340,293789,243390,11370,0,11:29:04.330759
44519,35338,293793,243390,11380,0,11:29:04.360441
44523,35344,293796,243394,11390,0,11:29:04.400678
44524,35347,293794,243390,11400,0,11:29:04.440414
44520,35343,293797,243391,11410,0,11:29:04.480746
44523,35345,293801,243390,11420,0,11:29:04.520871
44522,35343,293792,243385,11430,0,11:29:04.560090
44516,35341,293797,243393,11440,0,11:29:04.610363
44517,35339,293795,243389,11450,0,11:29:04.640914
44520,35338,293801,243390,11460,0,11:29:04.680941
44518,35337,293797,243382,11470,0,11:29:04.720514
44518,35338,293807,243392,11480,0,11:29:04.760336
44522,35342,293799,243389,11490,0,11:29:04.801152
44519,35340,293796,243388,11500,0,11:29:04.840464
44516,35337,293799,243397,11510,0,11:29:04.881759
44515,35336,293796,243393,11520,0,11:29:04.920630
44521,35336,293804,243388,11530,0,11:29:04.960463
44519,35337,293796,243382,11540,0,11:29:05.000888
44524,35344,293788,243382,11550,0,11:29:05.050678
44520,35342,293794,243392,11560,0,11:29:05.081233
44522,35339,293795,243390,11570,0,11:29:05.121230
44516,35336,293796,243391,11580,0,11:29:05.160431
44518,35340,293799,243386,11590,0,11:29:05.200825
44516,35340,293795,243388,11600,0,11:29:05.240987
44517,35337,293797,243389,11610,0,11:29:05.290468
44515,35335,293794,243389,11620,0,11:29:05.320360
44518,35342,293793,243382,11630,0,11:29:05.360425
44518,35341,293793,243384,11640,0,11:29:05.401315
44519,35336,293794,243388,11650,0,11:29:05.440333
44529,35342,293793,243378,11660,0,11:29:05.481195
44550,35341,293803,243394,11670,0,11:29:05.520404
44537,35341,293797,243387,11680,0,11:29:05.570988
44536,35348,293798,243389,11690,0,11:29:05.600447
44533,35341,293799,243388,11700,0,11:29:05.641443
44520,35339,293796,243379,11710,0,11:29:05.681716
44518,35338,293797,243391,11720,0,11:29:05.720531
44829,35575,293791,243377,11730,0,11:29:05.760957
46130,36616,293788,243376,11740,0,11:29:05.800397
46095,36617,293789,243376,11750,0,11:29:05.840282
46124,36617,293784,243378,11760,0,11:29:05.880530
46143,36618,293782,243382,11770,0,11:29:05.921469
46137,36617,293785,243383,11780,0,11:29:05.960796
46142,36621,293788,243379,11790,0,11:29:06.000564
46138,36616,293778,243382,11800,0,11:29:06.040796
46130,36615,293780,243378,11810,0,11:29:06.090379
46107,36617,293782,243380,11820,0,11:29:06.120911
46117,36617,293788,243380,11830,0,11:29:06.160866
46112,36614,293784,243382,11840,0,11:29:06.200185
46096,36619,293782,243380,11850,0,11:29:06.240380
46094,36617,293776,243368,11860,0,11:29:06.280739
46120,36607,293775,243372,11870,0,11:29:06.331189
46123,36613,293775,243374,11880,0,11:29:06.360439
46141,36617,293777,243370,11890,0,11:29:06.400399
46182,36608,293777,243370,11900,0,11:29:06.440223
46201,36613,293775,243368,11910,0,11:29:06.481061
46199,36618,293776,243369,11920,0,11:29:06.520555
46164,36608,293775,243364,11930,0,11:29:06.561445
46162,36607,293775,243367,11940,0,11:29:06.600265
46140,36608,293774,243369,11950,0,11:29:06.641080
46134,36612,293773,243370,11960,0,11:29:06.680567
46117,36605,293771,243373,11970,0,11:29:06.720311
46060,36605,293772,243366,11980,0,11:29:06.760469
46079,36606,293780,243370,11990,0,11:29:06.800807
46096,36608,293795,243367,12000,0,11:29:06.840434
46104,36607,293797,243369,12010,0,11:29:06.881204
46118,36606,293780,243365,12020,0,11:29:06.921125
46122,36610,293773,243368,12030,0,11:29:06.960996
46125,36612,293769,243362,12040,0,11:29:07.000070
46130,36615,293769,243367,12050,0,11:29:07.040977
46127,36611,293772,243368,12060,0,11:29:07.080671
46125,36611,293771,243361,12070,0,11:29:07.121381
46129,36617,293739,243370,12080,0,11:29:07.160808
46130,36612,293771,243362,12090,0,11:29:07.201255
46123,36610,293779,243365,12100,0,11:29:07.241493
46125,36611,293772,243362,12110,0,11:29:07.281696
46129,36616,293773,243364,12120,0,11:29:07.320371
46127,36616,293773,243366,12130,0,11:29:07.361208
46127,36612,293762,243363,12140,0,11:29:07.401212
46126,36611,293738,243361,12150,0,11:29:07.440182
46126,36616,293748,243363,12160,0,11:29:07.481657
46128,36617,293690,243361,12170,0,11:29:07.520889
46127,36616,293742,243361,12180,0,11:29:07.560442
46127,36614,293754,243366,12190,0,11:29:07.600429
46127,36621,293754,243371,12200,0,11:29:07.641035
46129,36620,293773,243370,12210,0,11:29:07.681674
46127,36616,293771,243368,12220,0,11:29:07.721491
46129,36620,293871,243370,12230,0,11:29:07.760362
46515,36920,293844,243377,12240,0,11:29:07.800466
47687,37851,293857,243370,12250,0,11:29:07.840491
47692,37851,293832,243364,12260,0,11:29:07.880272
47690,37851,293785,243357,12270,0,11:29:07.920797
47687,37849,293781,243354,12280,0,11:29:07.960462
47688,37849,293773,243357,12290,0,11:29:08.001262
47689,37848,293764,243361,12300,0,11:29:08.040413
47691,37848,293699,243360,12310,0,11:29:08.081245
47690,37847,293722,243359,12320,0,11:29:08.120310
47693,37850,293738,243357,12330,0,11:29:08.161317
47692,37849,293745,243363,12340,0,11:29:08.200459
47689,37847,293747,243359,12350,0,11:29:08.241433
47683,37844,293753,243355,12360,0,11:29:08.280673
47687,37847,293764,243356,12370,0,11:29:08.321328
47686,37844,293771,243364,12380,0,11:29:08.360350
47689,37850,293768,243364,12390,0,11:29:08.400575
47687,37847,293762,243356,12400,0,11:29:08.440444
47692,37850,293766,243362,12410,0,11:29:08.480667
47686,37845,293768,243363,12420,0,11:29:08.521272
47684,37840,293763,243363,12430,0,11:29:08.561488
47685,37841,293772,243360,12440,0,11:29:08.600858
47683,37849,293764,243356,12450,0,11:29:08.641508
47685,37843,293757,243353,12460,0,11:29:08.681174
47688,37848,293760,243356,12470,0,11:29:08.720157
47689,37850,293761,243360,12480,0,11:29:08.760394
47687,37850,293769,243363,12490,0,11:29:08.800919
47686,37849,293763,243354,12500,0,11:29:08.840397
47690,37850,293758,243351,12510,0,11:29:08.881424
47688,37849,293765,243357,12520,0,11:29:08.921278
47685,37846,293757,243351,12530,0,11:29:08.960434
47688,37844,293763,243357,12540,0,11:29:09.001238
47688,37843,293762,243357,12550,0,11:29:09.040855
47687,37844,293763,243350,12560,0,11:29:09.081243
47689,37844,293762,243353,12570,0,11:29:09.121018
47686,37845,293761,243350,12580,0,11:29:09.160848
47690,37847,293756,243353,12590,0,11:29:09.201207
47684,37843,293754,243354,12600,0,11:29:09.240594
47687,37846,293751,243348,12610,0,11:29:09.280269
47690,37848,293752,243350,12620,0,11:29:09.321359
47689,37849,293747,243347,12630,0,11:29:09.360487
47689,37849,293752,243352,12640,0,11:29:09.401273
47690,37850,293756,243348,12650,0,11:29:09.440209
47688,37845,293756,243357,12660,0,11:29:09.490672
47682,37843,293752,243350,12670,0,11:29:09.521358
47687,37846,293748,243347,12680,0,11:29:09.561065
47689,37849,293753,243346,12690,0,11:29:09.600839
47689,37848,293757,243354,12700,0,11:29:09.640198
47688,37849,293761,243355,12710,0,11:29:09.681213
47685,37843,293770,243357,12720,0,11:29:09.720229
47691,37848,293761,243353,12730,0,11:29:09.761062
47689,37846,293762,243352,12740,0,11:29:09.800698
48098,38169,293761,243354,12750,0,11:29:09.840331
49319,39136,293759,243356,12760,0,11:29:09.881618
49319,39131,293771,243354,12770,0,11:29:09.920396
49320,39134,293761,243351,12780,0,11:29:09.961048
49319,39136,293769,243356,12790,0,11:29:10.000409
49321,39137,293769,243360,12800,0,11:29:10.040449
49318,39135,293768,243358,12810,0,11:29:10.081207
49325,39145,293763,243354,12820,0,11:29:10.121440
49322,39138,293769,243360,12830,0,11:29:10.161420
49320,39143,293764,243353,12840,0,11:29:10.201492
49323,39145,293762,243351,12850,0,11:29:10.240410
49316,39136,293762,243354,12860,0,11:29:10.281420
49321,39141,293762,243349,12870,0,11:29:10.321056
49318,39135,293760,243344,12880,0,11:29:10.361235
49317,39135,293759,243349,12890,0,11:29:10.401289
49321,39137,293766,243359,12900,0,11:29:10.450162
49315,39129,293771,243355,12910,0,11:29:10.480434
49315,39133,293759,243353,12920,0,11:29:10.521265
49317,39135,293754,243352,12930,0,11:29:10.560476
49320,39139,293752,243346,12940,0,11:29:10.600378
49318,39138,293752,243343,12950,0,11:29:10.640790
49319,39137,293762,243355,12960,0,11:29:10.680661
49316,39134,293757,243353,12970,0,11:29:10.720982
49317,39137,293758,243347,12980,0,11:29:10.761105
49322,39136,293761,243351,12990,0,11:29:10.801290
49317,39137,293756,243347,13000,0,11:29:10.840274
49317,39137,293752,243348,13010,0,11:29:10.880613
49316,39137,293758,243355,13020,0,11:29:10.921390
49321,39134,293757,243347,13030,0,11:29:10.960436
49323,39139,293752,243352,13040,0,11:29:11.000790
49322,39139,293752,243345,13050,0,11:29:11.040403
49314,39129,293748,243342,13060,0,11:29:11.081242
49319,39131,293745,243348,13070,0,11:29:11.121342
49317,39133,293745,243344,13080,0,11:29:11.160411
49315,39133,293757,243350,13090,0,11:29:11.200910
49316,39131,293755,243343,13100,0,11:29:11.240490
49319,39135,293748,243340,13110,0,11:29:11.280863
49318,39136,293754,243342,13120,0,11:29:11.321107
49354,39139,293751,243340,13130,0,11:29:11.360410
49339,39140,293746,243345,13140,0,11:29:11.401082
49338,39137,293750,243341,13150,0,11:29:11.441129
49329,39139,293745,243338,13160,0,11:29:11.480856
49322,39138,293740,243341,13170,0,11:29:11.520271
49319,39134,293737,243328,13180,0,11:29:11.560876
49316,39135,293739,243329,13190,0,11:29:11.600941
49316,39132,293744,243329,13200,0,11:29:11.667761
49296,39139,293743,243335,13210,0,11:29:11.680728
49293,39139,293739,243330,13220,0,11:29:11.720621
49322,39134,293742,243328,13230,0,11:29:11.761512
49336,39142,293744,243330,13240,0,11:29:11.800396
49324,39132,293737,243328,13250,0,11:29:11.840077
49740,39468,293741,243330,13260,0,11:29:11.881481
50971,40438,293746,243329,13270,0,11:29:11.931561
50964,40446,293740,243330,13280,0,11:29:11.960709
50947,40439,293747,243330,13290,0,11:29:12.001247
50949,40440,293746,243336,13300,0,11:29:12.040924
50904,40448,293744,243337,13310,0,11:29:12.081605
50955,40446,293749,243336,13320,0,11:29:12.120344
50952,40439,293739,243334,13330,0,11:29:12.161086
50950,40439,293735,243333,13340,0,11:29:12.201010
50966,40437,293740,243335,13350,0,11:29:12.240463
50984,40441,293744,243334,13360,0,11:29:12.281226
51058,40445,293735,243324,13370,0,11:29:12.320437
51006,40442,293743,243337,13380,0,11:29:12.360755
51044,40444,293740,243328,13390,0,11:29:12.400462
51029,40445,293741,243330,13400,0,11:29:12.440480
50998,40438,293735,243326,13410,0,11:29:12.480564
50998,40440,293740,243333,13420,0,11:29:12.520478
50979,40440,293735,243330,13430,0,11:29:12.561344
50972,40436,293744,243331,13440,0,11:29:12.600448
50938,40440,293737,243329,13450,0,11:29:12.640419
50905,40435,293741,243329,13460,0,11:29:12.691391
50933,40437,293752,243335,13470,0,11:29:12.720405
50946,40442,293777,243330,13480,0,11:29:12.761292
50954,40436,293763,243328,13490,0,11:29:12.800306
50960,40440,293749,243331,13500,0,11:29:12.841253
50961,40436,293740,243321,13510,0,11:29:12.880846
50963,40435,293745,243326,13520,0,11:29:12.920297
50965,40434,293741,243330,13530,0,11:29:12.960741
50971,40442,293743,243332,13540,0,11:29:13.000830
50965,40438,293737,243328,13550,0,11:29:13.040706
50966,40434,293681,243328,13560,0,11:29:13.081099
50965,40436,293698,243330,13570,0,11:29:13.120395
50966,40438,293741,243327,13580,0,11:29:13.161340
50966,40437,293740,243323,13590,0,11:29:13.200383
50959,40435,293734,243323,13600,0,11:29:13.240439
50961,40438,293738,243321,13610,0,11:29:13.281232
50962,40438,293735,243322,13620,0,11:29:13.321263
50968,40440,293736,243328,13630,0,11:29:13.360367
50965,40437,293722,243317,13640,0,11:29:13.400255
50966,40433,293693,243320,13650,0,11:29:13.440440
50964,40437,293713,243316,13660,0,11:29:13.481352
50965,40437,293666,243314,13670,0,11:29:13.521230
50971,40445,293673,243318,13680,0,11:29:13.560439
50969,40442,293698,243307,13690,0,11:29:13.600943
50966,40439,293700,243315,13700,0,11:29:13.640616
50962,40434,293700,243304,13710,0,11:29:13.681488
50962,40437,293719,243313,13720,0,11:29:13.721093
50965,40438,293730,243312,13730,0,11:29:13.760771
50963,40440,293822,243319,13740,0,11:29:13.801450
50964,40442,293774,243315,13750,0,11:29:13.840237
50964,40442,293814,243320,13760,0,11:29:13.880898
51370,40723,293777,243323,13770,0,11:29:13.920924
52591,41537,293748,243320,13780,0,11:29:13.960392
52589,41537,293735,243311,13790,0,11:29:14.001030
52587,41533,293722,243311,13800,0,11:29:14.041320
52588,41537,293713,243313,13810,0,11:29:14.090475
52587,41533,293638,243307,13820,0,11:29:14.120393
52589,41534,293669,243305,13830,0,11:29:14.160329
52589,41537,293679,243306,13840,0,11:29:14.201413
52589,41535,293690,243306,13850,0,11:29:14.240428
52589,41532,293705,243312,13860,0,11:29:14.281086
52589,41531,293707,243305,13870,0,11:29:14.320398
52592,41532,293719,243311,13880,0,11:29:14.360382
52585,41529,293717,243307,13890,0,11:29:14.400409
52587,41534,293716,243315,13900,0,11:29:14.440322
52584,41530,293720,243307,13910,0,11:29:14.481423
52587,41529,293718,243309,13920,0,11:29:14.520629
52587,41532,293715,243310,13930,0,11:29:14.560422
52586,41530,293720,243306,13940,0,11:29:14.600177
52591,41529,293712,243307,13950,0,11:29:14.640477
52581,41520,293714,243305,13960,0,11:29:14.681031
52583,41528,293711,243304,13970,0,11:29:14.721310
52585,41524,293709,243306,13980,0,11:29:14.761012
52586,41529,293713,243308,13990,0,11:29:14.800379
52587,41531,293724,243309,14000,0,11:29:14.850049
52584,41529,293714,243303,14010,0,11:29:14.881163
52587,41529,293717,243310,14020,0,11:29:14.920485
52590,41537,293715,243306,14030,0,11:29:14.961321
52584,41532,293718,243304,14040,0,11:29:15.000404
52583,41534,293719,243306,14050,0,11:29:15.040905
52582,41533,293720,243307,14060,0,11:29:15.081368
52583,41532,293706,243304,14070,0,11:29:15.120471
52586,41537,293709,243301,14080,0,11:29:15.160467
52586,41530,293710,243305,14090,0,11:29:15.201224
52582,41531,293715,243309,14100,0,11:29:15.240396
52581,41526,293707,243301,14110,0,11:29:15.290485
52585,41529,293710,243303,14120,0,11:29:15.320432
52587,41531,293712,243304,14130,0,11:29:15.361401
52586,41530,293709,243295,14140,0,11:29:15.401072
52591,41536,293707,243297,14150,0,11:29:15.440414
52587,41532,293703,243302,14160,0,11:29:15.481386
52587,41533,293709,243301,14170,0,11:29:15.520425
52585,41528,293703,243296,14180,0,11:29:15.560425
52584,41527,293704,243296,14190,0,11:29:15.600463
52583,41527,293719,243307,14200,0,11:29:15.641051
52587,41528,293712,243301,14210,0,11:29:15.681208
52580,41526,293709,243306,14220,0,11:29:15.720413
52581,41528,293707,243303,14230,0,11:29:15.761501
52578,41521,293708,243303,14240,0,11:29:15.800276
52580,41526,293710,243309,14250,0,11:29:15.840416
52579,41521,293711,243302,14260,0,11:29:15.881354
52581,41528,293708,243302,14270,0,11:29:15.920914
52986,41850,293705,243303,14280,0,11:29:15.960403
54218,42823,293709,243302,14290,0,11:29:16.000298
54210,42820,293702,243291,14300,0,11:29:16.040067
54213,42815,293706,243296,14310,0,11:29:16.080354
54210,42819,293705,243302,14320,0,11:29:16.120461
54216,42824,293713,243304,14330,0,11:29:16.160454
54212,42821,293707,243303,14340,0,11:29:16.201346
54207,42817,293704,243301,14350,0,11:29:16.240406
54211,42818,293710,243303,14360,0,11:29:16.280517
54211,42817,293714,243304,14370,0,11:29:16.320481
54208,42814,293708,243310,14380,0,11:29:16.370461
54212,42819,293706,243301,14390,0,11:29:16.400276
54215,42821,293711,243302,14400,0,11:29:16.441473
54211,42820,293704,243298,14410,0,11:29:16.480564
54219,42828,293708,243295,14420,0,11:29:16.520484
54220,42824,293700,243289,14430,0,11:29:16.560417
54215,42820,293700,243295,14440,0,11:29:16.600295
54209,42813,293704,243290,14450,0,11:29:16.640353
54212,42821,293697,243288,14460,0,11:29:16.680678
54215,42825,293702,243285,14470,0,11:29:16.720294
54212,42821,293701,243290,14480,0,11:29:16.760443
54213,42820,293693,243285,14490,0,11:29:16.800359
54209,42820,293700,243294,14500,0,11:29:16.841067
54203,42809,293705,243296,14510,0,11:29:16.881507
54212,42819,293699,243289,14520,0,11:29:16.920322
54214,42823,293704,243293,14530,0,11:29:16.960457
54218,42822,293703,243295,14540,0,11:29:17.001276
54215,42822,293693,243290,14550,0,11:29:17.050250
54210,42822,293701,243296,14560,0,11:29:17.081537
54209,42816,293696,243292,14570,0,11:29:17.120173
54216,42824,293704,243293,14580,0,11:29:17.161289
54208,42814,293699,243294,14590,0,11:29:17.201343
54211,42819,293693,243287,14600,0,11:29:17.240244
54211,42819,293698,243291,14610,0,11:29:17.281511
54206,42812,293705,243292,14620,0,11:29:17.320835
54211,42819,293702,243291,14630,0,11:29:17.360479
54211,42819,293705,243296,14640,0,11:29:17.400394
54211,42818,293697,243298,14650,0,11:29:17.440389
54212,42820,293700,243296,14660,0,11:29:17.481353
54211,42817,293692,243290,14670,0,11:29:17.520295
54207,42813,293694,243291,14680,0,11:29:17.561263
54209,42814,293691,243284,14690,0,11:29:17.600630
54207,42812,293689,243284,14700,0,11:29:17.641183
54210,42814,293686,243280,14710,0,11:29:17.681108
54211,42814,293680,243273,14720,0,11:29:17.720205
54243,42816,293683,243278,14730,0,11:29:17.761510
54230,42815,293672,243276,14740,0,11:29:17.810273
54223,42809,293667,243273,14750,0,11:29:17.841121
54226,42816,293657,243266,14760,0,11:29:17.880667
54211,42810,293659,243263,14770,0,11:29:17.930556
54210,42814,293659,243268,14780,0,11:29:17.960457
54618,43140,293659,243266,14790,0,11:29:18.000351
55853,44122,293670,243273,14800,0,11:29:18.040744
55849,44114,293665,243264,14810,0,11:29:18.080727
55825,44116,293658,243272,14820,0,11:29:18.120462
55820,44115,293658,243271,14830,0,11:29:18.160986
55863,44119,293658,243264,14840,0,11:29:18.200890
55879,44121,293662,243266,14850,0,11:29:18.240418
55847,44116,293651,243263,14860,0,11:29:18.280989
55860,44115,293650,243254,14870,0,11:29:18.320108
55858,44117,293644,243258,14880,0,11:29:18.360412
77829,67827,408212,358016,14890,0,11:29:18.400420
179687,177680,524287,524151,14900,0,11:29:18.441694
148227,144320,498687,487423,14910,0,11:29:18.480486
69906,57445,368279,313677,14920,0,11:29:18.531502
104463,80310,514671,425118,14930,0,11:29:18.561179
153297,121178,524287,520921,14940,0,11:29:18.611113
232484,215564,524287,524287,14950,0,11:29:18.641357
343439,347597,524287,524287,14960,0,11:29:18.681424
297653,267792,524287,520191,14970,0,11:29:18.720783
119765,100583,328720,270794,14980,0,11:29:18.761204
44729,36929,124202,105705,14990,0,11:29:18.801121
26071,21631,74932,62242,15000,0,11:29:18.841189
19170,14081,60764,48613,15010,0,11:29:18.880871
15418,10202,56327,44308,15020,0,11:29:18.921069
14497,9399,55590,43650,15030,0,11:29:18.961022
15247,9937,56134,44023,15040,0,11:29:19.001186
17038,11756,57315,45370,15050,0,11:29:19.051199
20673,16992,60183,49585,15060,0,11:29:19.081400
25691,29677,64900,60702,15070,0,11:29:19.120937
31218,47485,69285,77016,15080,0,11:29:19.150186
44830,82236,82107,112556,15090,0,11:29:19.200147
101267,186302,162951,209416,15100,0,11:29:19.271141
213462,306446,327506,346101,15110,0,11:29:19.371116
262463,357150,411327,486996,15120,0,11:29:19.410331
274277,314839,399480,268418,15130,0,11:29:19.470329
275795,307877,374907,226052,15140,0,11:29:19.510928
274701,303465,348979,209017,15150,0,11:29:19.540942
290124,301160,372048,207628,15160,0,11:29:19.560075
299081,301037,380403,208756,15170,0,11:29:19.580791
298546,300594,367040,207593,15180,0,11:29:19.600715
319247,307804,430975,235923,15190,0,11:29:19.640533
346886,374782,505863,420205,15200,0,11:29:19.681411
302025,422752,424737,524287,15210,0,11:29:19.700238
269074,378710,357192,481359,15220,0,11:29:19.731344
246398,312076,304639,376010,15230,0,11:29:19.751036
322443,358953,436293,460760,15240,0,11:29:19.800185
346547,347728,458290,325274,15250,0,11:29:19.840660
330220,334645,412185,285153,15260,0,11:29:19.870580
305967,324586,350037,245952,15270,0,11:29:19.920925
328121,338113,427478,313545,15280,0,11:29:19.970090
353350,375895,501258,454434,15290,0,11:29:19.990961
355663,323185,478685,291780,15300,0,11:29:20.051041
338484,299397,426905,237008,15310,0,11:29:20.071204
301087,296375,329281,219795,15320,0,11:29:20.110946
278584,311197,266073,228064,15330,0,11:29:20.170701
286901,303303,298337,229625,15340,0,11:29:20.220896
298319,299689,328411,231143,15350,0,11:29:20.240946
320834,307040,382325,256855,15360,0,11:29:20.280465
347379,311459,442461,277982,15370,0,11:29:20.310923
336901,298516,424813,252308,15380,0,11:29:20.350947
329713,303758,446642,282934,15390,0,11:29:20.400873
295390,295841,344070,242575,15400,0,11:29:20.431112
264470,300509,243129,222508,15410,0,11:29:20.470559
294613,301251,340923,251376,15420,0,11:29:20.531129
350826,324993,491327,346717,15430,0,11:29:20.551108
271803,285872,246030,217020,15440,0,11:29:20.590938
266660,290352,233149,220611,15450,0,11:29:20.660970
284546,285598,289414,219377,15460,0,11:29:20.690948
272384,284870,259629,218162,15470,0,11:29:20.721013
262910,288436,235144,219929,15480,0,11:29:20.751122
261520,289372,233745,221833,15490,0,11:29:20.790935
264546,286451,244434,221531,15500,0,11:29:20.860895
259460,287796,229605,222900,15510,0,11:29:20.880998
309881,317872,418910,343464,15520,0,11:29:20.910793
229218,323062,299796,407641,15530,0,11:29:20.960960
195750,258185,245128,309250,15540,0,11:29:20.990851
199875,221109,244968,257287,15550,0,11:29:21.031092
185843,174396,229922,203710,15560,0,11:29:21.071147
206076,191561,257486,224569,15570,0,11:29:21.111259
301467,302443,408300,370052,15580,0,11:29:21.151162
327169,246415,397901,191818,15590,0,11:29:21.211106
342494,254406,465742,198377,15600,0,11:29:21.231069
328368,275088,465277,249346,15610,0,11:29:21.270946
253942,261867,317901,313340,15620,0,11:29:21.310570
240816,210189,298625,245458,15630,0,11:29:21.350490
280905,330416,363323,414452,15640,0,11:29:21.391365
329073,268728,408943,263875,15650,0,11:29:21.450074
288422,259465,251643,214093,15660,0,11:29:21.471225
293632,255510,271892,214334,15670,0,11:29:21.510140
331358,252355,388643,207111,15680,0,11:29:21.581306
373025,264751,512680,232239,15690,0,11:29:21.600888
372541,262698,510307,228981,15700,0,11:29:21.631105
344302,247082,418593,202484,15710,0,11:29:21.671315
289901,259655,255191,218846,15720,0,11:29:21.711207
280947,273267,237694,233060,15730,0,11:29:21.751074
291811,263299,274068,226453,15740,0,11:29:21.790891
327909,260526,392056,219984,15750,0,11:29:21.861059
350211,262620,464394,225013,15760,0,11:29:21.880996
352904,267280,490787,239456,15770,0,11:29:21.910955
348627,273579,487321,253989,15780,0,11:29:21.961000
294495,262756,277058,228044,15790,0,11:29:22.011048
283732,275692,245689,240171,15800,0,11:29:22.050149
298803,266045,298060,229660,15810,0,11:29:22.071276
353049,287484,459379,284809,15820,0,11:29:22.121345
378764,339088,524287,439418,15830,0,11:29:22.150154
374994,333567,524287,414316,15840,0,11:29:22.191024
370834,305354,517716,325191,15850,0,11:29:22.231216
311322,255790,309129,215202,15860,0,11:29:22.271150
293322,268973,257368,228924,15870,0,11:29:22.311201
306009,261254,303405,220415,15880,0,11:29:22.390649
356878,282781,460720,265035,15890,0,11:29:22.421184
379108,349175,524287,451053,15900,0,11:29:22.441032
377426,325553,524287,375463,15910,0,11:29:22.510110
348461,263217,424308,225216,15920,0,11:29:22.531085
292127,275418,248143,231158,15930,0,11:29:22.550142
292974,277744,255501,237220,15940,0,11:29:22.601006
327564,264488,369688,218170,15950,0,11:29:22.631387
364838,364180,497923,446174,15960,0,11:29:22.671061
359984,378851,488255,524287,15970,0,11:29:22.720527
344854,387887,459400,518880,15980,0,11:29:22.751072
358294,279831,440057,294265,15990,0,11:29:22.790928
318352,259916,307792,218318,16000,0,11:29:22.840437
337981,258654,370567,211212,16010,0,11:29:22.880566
378801,312106,514383,323807,16020,0,11:29:22.931345
329916,361694,426548,485630,16030,0,11:29:22.950136
362417,371566,484246,494023,16040,0,11:29:22.990996
378335,325784,510087,367195,16050,0,11:29:23.030188
321488,252828,317342,204945,16060,0,11:29:23.070884
311759,259549,291075,211204,16070,0,11:29:23.111279
359403,266352,452247,217269,16080,0,11:29:23.161313
332458,324501,434238,406283,16090,0,11:29:23.191279
226824,231418,275955,278695,16100,0,11:29:23.241264
258214,258608,311088,308689,16110,0,11:29:23.271283
314198,321205,383485,392201,16120,0,11:29:23.311178
406488,331870,516341,362813,16130,0,11:29:23.361242
413317,292444,524287,272685,16140,0,11:29:23.390636
336331,346535,431330,435304,16150,0,11:29:23.440998
268231,261469,324939,310214,16160,0,11:29:23.500960
301857,302053,371029,366356,16170,0,11:29:23.521357
360006,367719,467543,458911,16180,0,11:29:23.560836
391386,274600,501321,249702,16190,0,11:29:23.590996
358345,239699,391492,184992,16200,0,11:29:23.650903
366892,241759,424827,182428,16210,0,11:29:23.670717
392344,266176,514753,225712,16220,0,11:29:23.711132
345846,340930,434268,424851,16230,0,11:29:23.761016
349595,355747,436656,451618,16240,0,11:29:23.800820
379945,371559,490659,473161,16250,0,11:29:23.831223
402828,293998,509600,303053,16260,0,11:29:23.871139
362372,235005,396085,180565,16270,0,11:29:23.911048
382422,240504,463832,181689,16280,0,11:29:23.951119
390776,325690,500116,373587,16290,0,11:29:23.991377
210321,221243,256547,267393,16300,0,11:29:24.040991
210072,215736,255405,257469,16310,0,11:29:24.081202
299197,298773,360957,359462,16320,0,11:29:24.121266
390038,303725,494615,347791,16330,0,11:29:24.150119
360739,229816,388084,177824,16340,0,11:29:24.211029
374284,235139,445521,181250,16350,0,11:29:24.231194
341810,318775,436925,379482,16360,0,11:29:24.271136
282573,303080,346912,380093,16370,0,11:29:24.310984
330752,343179,421758,447134,16380,0,11:29:24.370556
366386,317387,496623,381490,16390,0,11:29:24.421303
353383,246036,439532,202288,16400,0,11:29:24.440999
362553,249427,458969,205587,16410,0,11:29:24.481207
381165,277185,520272,259207,16420,0,11:29:24.521030
373999,289192,512456,303991,16430,0,11:29:24.551139
353517,305429,485447,380400,16440,0,11:29:24.591289
352009,300875,486672,370911,16450,0,11:29:24.651056
346775,313028,471627,402480,16460,0,11:29:24.691333
312278,331426,381034,407706,16470,0,11:29:24.731206
351208,354242,452408,454265,16480,0,11:29:24.761082
344230,336777,451151,442004,16490,0,11:29:24.790353
327243,325877,424305,427952,16500,0,11:29:24.841068
325456,321702,423900,425029,16510,0,11:29:24.891361
302705,308208,377828,390770,16520,0,11:29:24.931545
281189,284704,334104,331615,16530,0,11:29:24.971171
279649,279485,335436,329347,16540,0,11:29:25.041150
261722,252964,315465,298885,16550,0,11:29:25.101207
260988,252307,318206,302512,16560,0,11:29:25.121218
283972,284255,348547,346634,16570,0,11:29:25.140161
276274,293016,335178,352933,16580,0,11:29:25.160205
307157,341534,381265,410407,16590,0,11:29:25.210857
285220,298296,346668,358356,16600,0,11:29:25.240356
275629,277834,337716,339088,16610,0,11:29:25.271261
317903,314556,409200,402353,16620,0,11:29:25.311330
357386,306323,489461,352435,16630,0,11:29:25.351097
325475,323013,438153,366565,16640,0,11:29:25.391118
258839,256661,313436,292771,16650,0,11:29:25.431021
251664,222235,302914,254263,16660,0,11:29:25.471175
234601,205080,281131,235872,16670,0,11:29:25.521311
271697,261684,330645,310391,16680,0,11:29:25.550365
399740,256500,512374,248683,16690,0,11:29:25.590991
368734,227022,457441,170451,16700,0,11:29:25.630191
315188,285006,416161,284347,16710,0,11:29:25.671243
212400,173444,262989,205647,16720,0,11:29:25.711184
221828,175531,273787,208446,16730,0,11:29:25.750998
235510,181836,288756,214609,16740,0,11:29:25.791204
303271,284499,385321,333863,16750,0,11:29:25.841035
414306,257022,524287,219117,16760,0,11:29:25.871030
400226,250643,524287,193280,16770,0,11:29:25.910247
305778,288736,400767,310079,16780,0,11:29:25.950105
247246,173645,318768,214967,16790,0,11:29:25.991325
273775,229152,342390,270025,16800,0,11:29:26.031166
313258,352093,396724,420442,16810,0,11:29:26.070855
345628,339559,447646,410748,16820,0,11:29:26.150191
371306,231328,427849,189453,16830,0,11:29:26.171219
358529,231970,417035,181972,16840,0,11:29:26.211305
322545,282335,430387,264965,16850,0,11:29:26.230574
276818,224466,353627,262762,16860,0,11:29:26.270968
279157,224809,347166,261390,16870,0,11:29:26.311322
266918,234637,331357,271869,16880,0,11:29:26.351205
325663,302094,420522,367484,16890,0,11:29:26.401326
371772,234936,432521,191659,16900,0,11:29:26.431100
382034,238363,473341,183183,16910,0,11:29:26.470182
344671,303267,457955,294418,16920,0,11:29:26.511026
273468,226162,343613,263714,16930,0,11:29:26.551180
263123,199597,330038,236903,16940,0,11:29:26.621350
254550,189691,318995,226303,16950,0,11:29:26.641247
259771,225723,327412,264227,16960,0,11:29:26.671290
395724,277595,500571,280875,16970,0,11:29:26.711032
395619,239678,478736,185080,16980,0,11:29:26.750476
386115,241947,478677,185663,16990,0,11:29:26.791350
306563,291053,394502,306746,17000,0,11:29:26.831139
255638,195729,324175,234616,17010,0,11:29:26.870391
287479,238634,355512,275233,17020,0,11:29:26.911291
278392,234178,345020,270961,17030,0,11:29:26.950188
376675,300885,471035,341903,17040,0,11:29:26.990418
396219,238852,464242,186423,17050,0,11:29:27.030937
398576,240544,481346,184636,17060,0,11:29:27.071029
361070,300279,469588,280171,17070,0,11:29:27.110168
283122,227496,355764,266319,17080,0,11:29:27.151090
286378,218446,355505,255673,17090,0,11:29:27.191189
264298,190323,329816,227314,17100,0,11:29:27.300163
276604,240428,345009,282689,17110,0,11:29:27.321011
424203,275673,521271,255947,17120,0,11:29:27.341149
429379,263094,524287,204339,17130,0,11:29:27.380727
402350,283284,514976,247079,17140,0,11:29:27.400241
277688,254243,349815,299959,17150,0,11:29:27.430640
230380,169923,293968,209056,17160,0,11:29:27.470481
214042,158467,272207,195302,17170,0,11:29:27.511145
220829,154745,281232,192292,17180,0,11:29:27.571356
281043,259024,354972,309652,17190,0,11:29:27.601204
417118,264759,524287,250506,17200,0,11:29:27.641238
417900,252252,522875,189403,17210,0,11:29:27.671243
401366,256815,514012,200882,17220,0,11:29:27.711286
289035,268345,372638,309335,17230,0,11:29:27.751270
262386,190878,333791,230907,17240,0,11:29:27.791181
286525,235291,357151,270680,17250,0,11:29:27.831033
260011,194872,322170,228821,17260,0,11:29:27.871010
290597,287878,368422,350900,17270,0,11:29:27.911195
411460,266117,523386,251226,17280,0,11:29:27.960549
409416,253479,523984,191447,17290,0,11:29:28.010338
370326,287854,492696,250398,17300,0,11:29:28.030162
281235,251942,357584,292606,17310,0,11:29:28.070982
283138,208604,355017,245899,17320,0,11:29:28.111130
279114,208144,350335,244375,17330,0,11:29:28.151042
258664,217907,319327,255196,17340,0,11:29:28.191166
321732,328122,413898,408889,17350,0,11:29:28.241235
412260,287484,524287,274477,17360,0,11:29:28.270197
402562,274897,523010,234362,17370,0,11:29:28.310970
298758,338866,384332,380862,17380,0,11:29:28.351222
279651,223420,346804,256659,17390,0,11:29:28.391376
249167,181589,306213,214551,17400,0,11:29:28.460207
231732,169336,284945,201584,17410,0,11:29:28.480903
248855,182064,326401,228682,17420,0,11:29:28.511025
321422,297470,316947,395509,17430,0,11:29:28.551249
304049,320792,237896,424376,17440,0,11:29:28.600420
306905,330764,234860,433213,17450,0,11:29:28.630972
325482,361312,260566,470184,17460,0,11:29:28.670283
336343,376770,282981,495468,17470,0,11:29:28.711023
374271,378030,393098,502007,17480,0,11:29:28.750296
399929,384486,490034,467341,17490,0,11:29:28.791320
317887,345307,407742,368292,17500,0,11:29:28.831141
293634,336553,380965,316258,17510,0,11:29:28.871044
305038,346705,396591,319914,17520,0,11:29:28.911283
330197,368680,428737,330778,17530,0,11:29:28.950198
360481,390009,470562,369434,17540,0,11:29:28.991016
427665,445167,523025,468380,17550,0,11:29:29.031187
506224,474023,524287,507099,17560,0,11:29:29.081388
524287,444283,524287,437217,17570,0,11:29:29.111388
524287,426302,524287,389612,17580,0,11:29:29.161009
523224,417538,524287,361829,17590,0,11:29:29.191040
496081,383388,524287,278647,17600,0,11:29:29.230841
488453,377067,524287,262329,17610,0,11:29:29.271219
496073,382943,524287,273193,17620,0,11:29:29.311123
495488,385657,524287,277809,17630,0,11:29:29.351012
487147,384272,524287,272920,17640,0,11:29:29.391202
489345,385070,524287,274035,17650,0,11:29:29.430967
494739,388351,524287,277962,17660,0,11:29:29.470988
485286,386938,524287,274719,17670,0,11:29:29.511038
483172,387854,524287,274187,17680,0,11:29:29.551147
495849,392401,524287,284382,17690,0,11:29:29.590134
500050,395110,524287,292248,17700,0,11:29:29.640930
494988,396435,524287,293949,17710,0,11:29:29.671276
490728,396313,524287,292814,17720,0,11:29:29.710347
485248,395036,524287,286624,17730,0,11:29:29.751057
485300,395963,524287,285033,17740,0,11:29:29.791338
487913,397382,524287,285660,17750,0,11:29:29.830664
501112,406906,524287,298392,17760,0,11:29:29.870960
522561,429248,524287,342216,17770,0,11:29:29.910705
524287,439598,524287,378198,17780,0,11:29:29.950630
524121,438322,524287,371987,17790,0,11:29:29.990259
503489,427431,524287,340273,17800,0,11:29:30.031111
477047,395275,524287,283118,17810,0,11:29:30.071313
483156,391582,524287,282822,17820,0,11:29:30.111318
490309,395469,524287,286756,17830,0,11:29:30.151322
508032,409336,524287,307358,17840,0,11:29:30.191269
513671,415096,524287,323166,17850,0,11:29:30.230235
509531,416473,524287,321120,17860,0,11:29:30.271299
490594,403404,524287,295158,17870,0,11:29:30.310164
479383,389646,518115,281001,17880,0,11:29:30.350508
481921,390287,518023,284372,17890,0,11:29:30.391233
493223,390230,524287,285970,17900,0,11:29:30.430508
504743,394545,524287,295109,17910,0,11:29:30.470971
506663,398535,524287,301696,17920,0,11:29:30.510778
502752,398366,524287,296476,17930,0,11:29:30.551017
486542,390331,523553,281372,17940,0,11:29:30.591047
474411,382604,500935,277960,17950,0,11:29:30.631171
479266,383558,510031,279454,17960,0,11:29:30.670863
491340,385586,524287,279571,17970,0,11:29:30.711066
497371,388441,524287,281528,17980,0,11:29:30.751263
501937,395270,524287,287515,17990,0,11:29:30.791024
501182,397461,524287,289035,18000,0,11:29:30.831142
490483,395026,524287,284919,18010,0,11:29:30.871145
478778,384987,516570,275834,18020,0,11:29:30.911247
474767,382874,498334,275696,18030,0,11:29:30.950990
481829,383715,515416,276486,18040,0,11:29:30.990984
490907,385117,524287,277559,18050,0,11:29:31.031205
494555,386543,524287,278841,18060,0,11:29:31.071115
495402,388888,524287,281862,18070,0,11:29:31.111098
495317,390193,524287,283173,18080,0,11:29:31.150612
488607,388108,524287,280466,18090,0,11:29:31.191234
476696,380715,508631,274457,18100,0,11:29:31.230901
477252,378619,507577,272509,18110,0,11:29:31.270552
484972,379200,523415,272025,18120,0,11:29:31.311214
489644,381580,524287,272543,18130,0,11:29:31.350998
490575,384071,524287,274448,18140,0,11:29:31.391214
490593,385341,524287,275325,18150,0,11:29:31.431191
486675,384636,524287,273667,18160,0,11:29:31.470965
475059,378639,505479,268639,18170,0,11:29:31.511277
472126,376763,491155,268261,18180,0,11:29:31.550107
477807,377070,506481,268445,18190,0,11:29:31.591033
484657,378949,519849,269191,18200,0,11:29:31.631086
487429,381827,524287,271018,18210,0,11:29:31.671334
487823,383503,524287,272998,18220,0,11:29:31.711247
488700,385436,524287,275189,18230,0,11:29:31.751303
484898,385067,524287,274681,18240,0,11:29:31.790309
474201,381153,510839,270625,18250,0,11:29:31.830535
470478,379085,496204,269610,18260,0,11:29:31.870956
478275,379931,514821,271113,18270,0,11:29:31.910544
487141,384174,524287,275639,18280,0,11:29:31.950932
487200,385715,524287,276221,18290,0,11:29:31.990189
487776,386653,524287,276736,18300,0,11:29:32.030422
485577,385646,524287,274656,18310,0,11:29:32.071225
474302,380441,521969,267017,18320,0,11:29:32.111064
463739,374147,493343,259870,18330,0,11:29:32.151036
464893,373806,492835,260207,18340,0,11:29:32.190977
472341,374014,507277,260510,18350,0,11:29:32.231359
476883,376277,513948,261940,18360,0,11:29:32.270870
478302,377973,523273,264881,18370,0,11:29:32.311070
480154,380630,524287,268289,18380,0,11:29:32.350136
480123,381540,524287,269660,18390,0,11:29:32.391357
466953,377840,511952,264079,18400,0,11:29:32.431208
453092,373956,474186,259383,18410,0,11:29:32.471066
457547,374706,485768,260439,18420,0,11:29:32.510986
467253,375453,510018,261552,18430,0,11:29:32.551197
466075,376682,507939,261888,18440,0,11:29:32.591105
465703,377971,511388,263894,18450,0,11:29:32.630100
461188,378378,503415,264282,18460,0,11:29:32.671103
447376,373131,455424,260545,18470,0,11:29:32.710623
448556,371097,448734,260597,18480,0,11:29:32.751061
463572,372013,493252,259092,18490,0,11:29:32.791144
467412,373582,520648,259284,18500,0,11:29:32.830738
464580,375013,519974,259860,18510,0,11:29:32.871369
462145,375471,516719,260366,18520,0,11:29:32.911106
457558,375088,509321,259984,18530,0,11:29:32.951137
443435,373223,472473,254868,18540,0,11:29:32.991002
436741,372830,448376,252097,18550,0,11:29:33.030895
449056,372022,480172,253128,18560,0,11:29:33.071123
465364,370274,523423,257385,18570,0,11:29:33.111243
458586,370862,523013,256919,18580,0,11:29:33.150508
457615,371860,521287,258302,18590,0,11:29:33.190175
456823,371921,519085,258507,18600,0,11:29:33.231119
446936,369462,486535,253023,18610,0,11:29:33.291332
438285,368246,446829,249287,18620,0,11:29:33.310273
445284,369873,464574,250592,18630,0,11:29:33.351292
462861,370086,512895,254474,18640,0,11:29:33.390678
458052,369069,514174,253905,18650,0,11:29:33.430434
457263,370789,518474,256935,18660,0,11:29:33.471159
455119,369906,517834,257541,18670,0,11:29:33.511338
450608,367164,509853,254746,18680,0,11:29:33.560656
439352,362243,472000,246600,18690,0,11:29:33.611290
435940,362065,444025,244344,18700,0,11:29:33.631064
442573,363574,460923,245028,18710,0,11:29:33.671063
457513,363057,506456,247310,18720,0,11:29:33.711067
456566,363509,517492,249669,18730,0,11:29:33.750943
456876,365384,524277,253893,18740,0,11:29:33.790303
456965,365533,524210,254846,18750,0,11:29:33.830174
449051,363276,502128,250307,18760,0,11:29:33.870999
439026,361362,454637,245180,18770,0,11:29:33.920261
442420,363146,457272,246453,18780,0,11:29:33.951152
453203,363389,488172,247497,18790,0,11:29:33.991349
460683,363099,510663,249049,18800,0,11:29:34.031061
462387,365769,524011,255833,18810,0,11:29:34.080747
461030,366777,524287,260490,18820,0,11:29:34.110361
459819,366407,524287,259950,18830,0,11:29:34.151103
449143,362786,491985,251379,18840,0,11:29:34.190406
434634,363071,435246,250392,18850,0,11:29:34.230874
439791,363391,450748,251012,18860,0,11:29:34.270495
459927,362280,508410,252186,18870,0,11:29:34.310742
463076,363614,524287,258975,18880,0,11:29:34.361074
461479,364721,524287,262192,18890,0,11:29:34.391071
457296,363111,524287,257860,18900,0,11:29:34.431068
447029,359450,499022,248200,18910,0,11:29:34.470981
434509,358919,446295,245305,18920,0,11:29:34.511083
433186,360517,436503,247938,18930,0,11:29:34.551164
441244,360516,460559,248225,18940,0,11:29:34.590989
455238,360849,511065,250903,18950,0,11:29:34.631243
456063,364327,524287,258429,18960,0,11:29:34.670969
455197,365342,524287,260459,18970,0,11:29:34.710253
450461,362899,512076,255034,18980,0,11:29:34.761098
438586,360195,455786,250013,18990,0,11:29:34.790909
433000,361449,429978,253166,19000,0,11:29:34.831103
440473,362103,452385,253876,19010,0,11:29:34.871366
456897,362011,504941,255169,19020,0,11:29:34.911163
458939,365610,524287,262950,19030,0,11:29:34.951278
457789,367788,524287,268610,19040,0,11:29:34.991105
455127,366303,524287,265724,19050,0,11:29:35.031064
441904,360755,479950,253963,19060,0,11:29:35.070948
431067,359689,428139,253775,19070,0,11:29:35.111247
434970,360576,441374,254299,19080,0,11:29:35.151103
449606,359718,487228,253222,19090,0,11:29:35.191350
453243,363000,515398,257185,19100,0,11:29:35.231107
453227,366531,524287,263115,19110,0,11:29:35.270953
451495,367310,523668,263510,19120,0,11:29:35.311213
444042,364779,495766,257896,19130,0,11:29:35.351300
433816,361369,440936,254385,19140,0,11:29:35.390805
433287,362682,432533,256508,19150,0,11:29:35.430191
440716,362746,458495,256470,19160,0,11:29:35.470987
457157,362367,513092,257768,19170,0,11:29:35.511327
455148,366883,523929,263441,19180,0,11:29:35.551144
457392,370105,524287,268900,19190,0,11:29:35.591036
457595,370726,524287,269516,19200,0,11:29:35.630813
453234,368589,520784,266177,19210,0,11:29:35.671373
445482,365674,491123,260353,19220,0,11:29:35.710217
445164,365423,484325,259705,19230,0,11:29:35.750963
447011,363560,486519,259022,19240,0,11:29:35.790993
446887,363883,488845,258897,19250,0,11:29:35.831212
451604,365212,513301,261706,19260,0,11:29:35.871297
449100,365147,521798,263084,19270,0,11:29:35.911028
445255,363981,515130,261300,19280,0,11:29:35.951111
442017,363180,501433,258070,19290,0,11:29:35.991336
441353,362224,489660,255844,19300,0,11:29:36.031127
441847,360274,474988,253989,19310,0,11:29:36.071061
445606,359907,473431,254173,19320,0,11:29:36.111048
449514,363334,500279,259536,19330,0,11:29:36.151298
449550,366110,518666,264975,19340,0,11:29:36.191221
448105,366777,523223,266920,19350,0,11:29:36.231156
443727,365415,506640,263549,19360,0,11:29:36.271056
438465,363339,475953,258682,19370,0,11:29:36.311255
439114,362812,466412,258015,19380,0,11:29:36.351101
445280,362636,472905,258529,19390,0,11:29:36.391048
450255,364819,487525,262084,19400,0,11:29:36.430307
451118,367230,507551,267127,19410,0,11:29:36.481096
451580,368154,523484,271824,19420,0,11:29:36.511016
450297,367149,524287,271648,19430,0,11:29:36.550799
445899,365358,516448,266547,19440,0,11:29:36.591219
437509,362174,474868,257954,19450,0,11:29:36.631197
435759,360784,449583,255805,19460,0,11:29:36.671243
443489,362256,464043,256862,19470,0,11:29:36.710984
447422,365687,487225,260909,19480,0,11:29:36.750143
449157,368535,509908,266032,19490,0,11:29:36.791197
447674,368606,515882,267813,19500,0,11:29:36.831114
440077,366186,491796,262803,19510,0,11:29:36.871346
433223,363462,455061,258148,19520,0,11:29:36.911094
434842,362712,445367,257886,19530,0,11:29:36.941050
442116,364403,460866,259446,19540,0,11:29:36.990602
447496,367638,489750,263728,19550,0,11:29:37.040178
449141,370361,515061,269830,19560,0,11:29:37.071032
447241,370763,519644,272016,19570,0,11:29:37.101197
439867,368077,490748,266311,19580,0,11:29:37.140171
431607,365359,444328,261768,19590,0,11:29:37.181146
433234,365029,436986,262474,19600,0,11:29:37.220484
441685,365737,455892,263157,19610,0,11:29:37.261046
446762,367896,479422,265062,19620,0,11:29:37.301013
447522,369777,498797,267546,19630,0,11:29:37.341131
444484,369738,497522,266667,19640,0,11:29:37.381021
438204,367465,474979,262073,19650,0,11:29:37.430130
434861,365944,456867,258820,19660,0,11:29:37.461064
440235,365373,468070,257987,19670,0,11:29:37.501308
448452,365700,487086,257925,19680,0,11:29:37.540127
448964,369183,495940,262339,19690,0,11:29:37.580491
447929,371149,501626,265223,19700,0,11:29:37.620956
446512,371088,502276,265410,19710,0,11:29:37.660716
440883,368956,484515,261966,19720,0,11:29:37.701330
435751,367120,461417,258443,19730,0,11:29:37.741256
436721,367059,460210,257907,19740,0,11:29:37.780363
444695,366663,481979,258447,19750,0,11:29:37.820565
448097,368694,493290,260244,19760,0,11:29:37.871109
449323,372430,503690,265469,19770,0,11:29:37.901043
448098,373781,501678,266839,19780,0,11:29:37.941081
439625,371424,475914,262367,19790,0,11:29:37.990723
440034,370438,475867,260433,19800,0,11:29:38.020308
443757,370286,486633,259523,19810,0,11:29:38.060584
454650,372074,517082,265917,19820,0,11:29:38.111047
462544,375685,524287,276303,19830,0,11:29:38.140389
463407,375269,524287,276394,19840,0,11:29:38.181092
456173,372394,524287,268776,19850,0,11:29:38.220556
447478,369665,524287,261193,19860,0,11:29:38.270614
439855,368385,524261,256230,19870,0,11:29:38.300416
444683,370105,524287,259429,19880,0,11:29:38.341281
448542,371059,524287,263242,19890,0,11:29:38.381516
446585,369643,524287,261804,19900,0,11:29:38.420990
445575,368364,524287,260056,19910,0,11:29:38.485955
444940,367807,524287,259046,19920,0,11:29:38.510688
447020,368073,524287,260188,19930,0,11:29:38.540234
447132,369133,524287,262222,19940,0,11:29:38.591011
447494,370644,524287,265013,19950,0,11:29:38.620810
449020,371602,524287,266911,19960,0,11:29:38.660977
445049,369291,524287,262867,19970,0,11:29:38.710880
440842,366211,524287,257548,19980,0,11:29:38.741026
441629,365493,524287,255793,19990,0,11:29:38.781263
448932,367317,524287,259821,20000,0,11:29:38.820624
448564,368303,524287,261996,20010,0,11:29:38.860908
439700,365770,523294,254427,20020,0,11:29:38.901026
430667,362470,508692,246661,20030,0,11:29:38.941019
435370,363681,518887,248748,20040,0,11:29:38.981162
434630,363724,516119,248637,20050,0,11:29:39.020666
426938,361173,489276,245095,20060,0,11:29:39.061028
417760,360455,456120,247440,20070,0,11:29:39.100990
418808,365499,456526,254724,20080,0,11:29:39.150876
438393,378700,514079,275126,20090,0,11:29:39.231042
434369,384166,524287,282989,20100,0,11:29:39.251125
422147,380417,519520,275476,20110,0,11:29:39.271263
413243,376976,498982,267949,20120,0,11:29:39.311020
407075,375011,479831,263623,20130,0,11:29:39.351122
397017,369683,427927,254544,20140,0,11:29:39.381200
398253,372892,406941,256876,20150,0,11:29:39.421314
405674,372927,420978,258467,20160,0,11:29:39.460966
419457,374123,458881,262149,20170,0,11:29:39.501206
417942,376695,471208,265808,20180,0,11:29:39.550662
408808,375034,453065,261932,20190,0,11:29:39.581146
396612,372101,417151,255775,20200,0,11:29:39.621368
400765,372813,421343,255714,20210,0,11:29:39.661311
408742,372758,439480,256849,20220,0,11:29:39.721322
444245,375094,506669,268126,20230,0,11:29:39.741239
479282,385767,524287,298881,20240,0,11:29:39.781165
466636,387451,524287,301351,20250,0,11:29:39.851290
448877,383794,524287,289212,20260,0,11:29:39.890915
406081,367198,462589,251600,20270,0,11:29:39.911290
394614,364643,418062,244903,20280,0,11:29:39.951176
398469,366146,428573,246604,20290,0,11:29:40.010079
421943,375800,498530,262588,20300,0,11:29:40.031267
414970,376821,488843,263007,20310,0,11:29:40.061001
407139,373184,465696,256720,20320,0,11:29:40.101046
405037,369971,452869,252413,20330,0,11:29:40.140993
407939,368667,458548,251428,20340,0,11:29:40.180979
416337,368030,481632,252339,20350,0,11:29:40.220199
420985,368279,503164,254018,20360,0,11:29:40.261086
423556,369377,515252,255647,20370,0,11:29:40.301284
417469,368606,497369,252228,20380,0,11:29:40.341022
399314,366098,447130,244936,20390,0,11:29:40.380645
393816,365412,428024,243213,20400,0,11:29:40.431094
397989,364807,436632,243579,20410,0,11:29:40.481095
415008,365482,478936,247923,20420,0,11:29:40.501097
418546,365118,496830,250231,20430,0,11:29:40.540462
410033,362905,481014,246263,20440,0,11:29:40.591031
409890,361885,477280,244661,20450,0,11:29:40.661071
404217,362035,456642,242513,20460,0,11:29:40.681026
396036,363839,434677,242508,20470,0,11:29:40.721199
393299,363497,423697,241878,20480,0,11:29:40.750483
397945,362683,432262,242455,20490,0,11:29:40.781059
399677,361700,443884,243690,20500,0,11:29:40.821348
399857,359879,452751,244000,20510,0,11:29:40.860962
402072,356875,462440,242423,20520,0,11:29:40.901243
400381,353316,458038,238501,20530,0,11:29:40.960462
403069,353065,463698,237476,20540,0,11:29:40.990854
395987,355235,440221,235640,20550,0,11:29:41.020826
388712,356137,417132,234176,20560,0,11:29:41.060770
389692,355415,415094,234012,20570,0,11:29:41.100905
390834,353891,424314,234544,20580,0,11:29:41.141245
397591,352662,451697,237063,20590,0,11:29:41.181145
404406,352178,476082,240241,20600,0,11:29:41.221321
404462,351535,479086,240139,20610,0,11:29:41.270265
409025,350226,487031,239799,20620,0,11:29:41.311059
403177,349794,470471,236542,20630,0,11:29:41.341069
394918,351409,443426,234625,20640,0,11:29:41.391093
386996,352365,415763,232561,20650,0,11:29:41.421148
388326,352620,412837,233431,20660,0,11:29:41.461392
391981,351832,429929,235193,20670,0,11:29:41.501044
394860,351931,450989,238769,20680,0,11:29:41.540275
396431,351122,457416,238640,20690,0,11:29:41.580692
397805,348822,462342,236985,20700,0,11:29:41.621340
401658,348216,478690,237081,20710,0,11:29:41.661044
395406,351013,454355,235318,20720,0,11:29:41.701050
381308,350277,414573,230366,20730,0,11:29:41.741176
384836,349185,421939,230243,20740,0,11:29:41.780583
388623,347885,438534,230930,20750,0,11:29:41.821347
394423,347919,461790,234373,20760,0,11:29:41.861100
412043,349348,503801,241263,20770,0,11:29:41.901101
408903,348386,498688,240058,20780,0,11:29:41.941350
407399,347407,495669,238422,20790,0,11:29:41.991058
407511,349754,497417,240349,20800,0,11:29:42.020203
415078,354628,511442,245980,20810,0,11:29:42.060971
415292,355357,510756,246588,20820,0,11:29:42.101305
404517,353951,480567,240412,20830,0,11:29:42.141039
388559,351507,430871,232426,20840,0,11:29:42.181129
384524,352598,420256,232796,20850,0,11:29:42.220243
386366,354574,425562,235234,20860,0,11:29:42.261322
392093,356863,438218,238259,20870,0,11:29:42.301131
408861,359273,484702,246915,20880,0,11:29:42.391381
415854,363060,514520,257335,20890,0,11:29:42.431046
415382,363484,508709,256690,20900,0,11:29:42.451118
410108,361361,492898,250613,20910,0,11:29:42.470928
398621,356931,454677,240573,20920,0,11:29:42.501134
387506,355157,422026,236988,20930,0,11:29:42.551312
397253,357734,442655,240359,20940,0,11:29:42.590803
417149,365190,502537,254493,20950,0,11:29:42.620936
425613,370957,524259,267235,20960,0,11:29:42.681356
420650,367460,507508,260077,20970,0,11:29:42.721042
410773,361036,470193,247742,20980,0,11:29:42.741369
404028,357859,442408,243542,20990,0,11:29:42.781147
402257,357990,430645,243882,21000,0,11:29:42.821012
405559,360661,439577,247284,21010,0,11:29:42.861330
408663,364146,456915,252318,21020,0,11:29:42.901473
411939,366723,468830,256135,21030,0,11:29:42.941073
409830,366471,461903,255888,21040,0,11:29:42.980422
408464,366879,455923,255545,21050,0,11:29:43.020992
406533,366593,449517,255300,21060,0,11:29:43.061026
402755,365690,426750,253396,21070,0,11:29:43.101304
406795,368154,433729,255063,21080,0,11:29:43.141044
412693,370490,454694,257629,21090,0,11:29:43.191128
425243,372060,491942,262916,21100,0,11:29:43.220718
417313,370293,475257,259993,21110,0,11:29:43.280970
414645,370136,461179,256399,21120,0,11:29:43.301179
417754,371028,471882,257506,21130,0,11:29:43.340750
410515,369491,446267,255360,21140,0,11:29:43.381047
407503,370089,421466,255089,21150,0,11:29:43.422115
408481,371846,428818,257656,21160,0,11:29:43.470520
412986,373059,446209,259574,21170,0,11:29:43.511113
412719,372251,447887,259773,21180,0,11:29:43.540987
413036,372819,450254,260303,21190,0,11:29:43.580429
412591,373246,450518,260991,21200,0,11:29:43.630790
411085,372622,436612,260199,21210,0,11:29:43.680494
412631,373760,428084,261511,21220,0,11:29:43.721001
412647,375167,435039,264087,21230,0,11:29:43.741314
419450,376947,460151,267199,21240,0,11:29:43.791727
425775,377564,487306,271148,21250,0,11:29:43.821180
419231,376404,474708,269073,21260,0,11:29:43.881187
417153,376185,466011,266008,21270,0,11:29:43.900676
418395,376449,466680,264687,21280,0,11:29:43.971302
412524,374188,442623,260920,21290,0,11:29:43.991401
412149,373542,425067,259513,21300,0,11:29:44.021324
422606,375919,445184,261376,21310,0,11:29:44.081103
431861,386149,483866,271906,21320,0,11:29:44.100247
435496,397036,523795,290155,21330,0,11:29:44.140324
424651,393809,518131,284190,21340,0,11:29:44.181219
421903,390478,510142,277449,21350,0,11:29:44.221336
425982,391037,517167,277778,21360,0,11:29:44.261320
424229,388041,505187,273008,21370,0,11:29:44.300737
419831,382739,482384,264955,21380,0,11:29:44.341107
421984,384728,487791,267978,21390,0,11:29:44.390911
421905,385952,496871,270073,21400,0,11:29:44.421368
412780,383276,483123,266454,21410,0,11:29:44.461035
409290,381959,474530,264037,21420,0,11:29:44.500977
412292,382115,477772,263641,21430,0,11:29:44.541055
416887,380296,480961,261975,21440,0,11:29:44.581088
412591,379878,477510,262357,21450,0,11:29:44.620921
413870,383344,483630,264640,21460,0,11:29:44.671290
404818,380362,461921,258966,21470,0,11:29:44.711325
398378,377857,443524,254266,21480,0,11:29:44.761137
402717,378329,450710,254207,21490,0,11:29:44.780966
410060,377408,452179,253165,21500,0,11:29:44.821156
412751,378911,456545,256117,21510,0,11:29:44.860995
407600,381510,456371,258954,21520,0,11:29:44.901031
396068,380373,435642,256582,21530,0,11:29:44.951295
391861,379681,421899,254686,21540,0,11:29:45.001184
394471,379892,420616,254503,21550,0,11:29:45.021027
401357,381118,418293,254879,21560,0,11:29:45.061350
411342,383389,430352,258572,21570,0,11:29:45.101067
413724,384999,449019,263679,21580,0,11:29:45.141060
408022,386297,449417,266221,21590,0,11:29:45.181020
404203,385481,446339,266195,21600,0,11:29:45.220562
402491,385563,442799,265980,21610,0,11:29:45.261067
398221,384215,418305,262683,21620,0,11:29:45.301080
399102,383729,404267,261093,21630,0,11:29:45.341133
407483,382962,418047,260371,21640,0,11:29:45.381193
410243,383256,431809,261589,21650,0,11:29:45.420678
415803,384507,462501,266921,21660,0,11:29:45.461035
426053,388327,513804,278748,21670,0,11:29:45.500958
431501,393472,524287,288778,21680,0,11:29:45.540915
416868,393582,498488,281709,21690,0,11:29:45.590069
384764,382743,409548,260769,21700,0,11:29:45.620832
393574,382936,416083,258739,21710,0,11:29:45.661279
407015,384276,447416,261633,21720,0,11:29:45.701089
488518,391639,524287,317573,21730,0,11:29:45.741066
427302,439505,521898,511182,21740,0,11:29:45.780155
514434,518335,524287,524287,21750,0,11:29:45.821097
471341,521628,520160,524287,21760,0,11:29:45.861126
468402,498770,521798,522403,21770,0,11:29:45.901307
430342,415615,487491,356570,21780,0,11:29:45.940999
437693,389756,521174,281742,21790,0,11:29:45.981398
455734,419737,524287,341796,21800,0,11:29:46.021336
469171,436581,524287,412911,21810,0,11:29:46.061035
479534,449170,524287,456725,21820,0,11:29:46.111042
418464,413714,497545,350765,21830,0,11:29:46.141279
408584,379406,486120,260092,21840,0,11:29:46.191128
415384,382398,497393,257418,21850,0,11:29:46.221413
423551,402524,517564,294146,21860,0,11:29:46.261120
482033,431501,524287,399017,21870,0,11:29:46.300989
509521,446712,524287,464727,21880,0,11:29:46.340234
445688,427386,507993,388186,21890,0,11:29:46.380628
404649,403490,458944,309085,21900,0,11:29:46.421201
411932,402345,476791,297272,21910,0,11:29:46.461176
424341,406872,500998,304560,21920,0,11:29:46.501019
446120,414801,524276,338806,21930,0,11:29:46.541373
456311,423417,524287,372952,21940,0,11:29:46.590915
434052,416216,515956,344122,21950,0,11:29:46.621020
396939,391622,449711,269990,21960,0,11:29:46.671121
397897,381321,440275,246278,21970,0,11:29:46.710910
407683,380779,449691,242467,21980,0,11:29:46.740855
423082,389086,481880,256503,21990,0,11:29:46.781229
420657,396846,496849,279407,22000,0,11:29:46.820230
428980,403374,518433,296544,22010,0,11:29:46.861092
443208,411042,524287,311050,22020,0,11:29:46.920801
431246,402899,509820,291682,22030,0,11:29:46.941322
420553,385946,481029,257775,22040,0,11:29:46.981114
419321,381476,469238,249159,22050,0,11:29:47.051184
426499,389923,484378,261682,22060,0,11:29:47.070902
419365,398590,478214,280268,22070,0,11:29:47.101211
406899,393403,437102,264220,22080,0,11:29:47.141129
421033,397266,438034,258857,22090,0,11:29:47.181133
432448,403841,444930,261007,22100,0,11:29:47.221105
441574,402711,444885,259887,22110,0,11:29:47.270875
446551,405101,445315,263566,22120,0,11:29:47.301293
445891,407378,451382,268525,22130,0,11:29:47.351332
450307,413083,477453,281552,22140,0,11:29:47.380646
451950,416494,485613,288522,22150,0,11:29:47.421297
454910,419508,490146,292480,22160,0,11:29:47.470999
451818,418338,479721,289674,22170,0,11:29:47.501030
443366,407137,448156,275674,22180,0,11:29:47.541340
450280,406644,452197,276838,22190,0,11:29:47.600936
453778,409328,463461,279911,22200,0,11:29:47.641058
465314,415255,502376,291123,22210,0,11:29:47.671309
467304,416425,512206,297715,22220,0,11:29:47.700888
469608,418357,510185,298516,22230,0,11:29:47.751061
464275,417345,489227,292321,22240,0,11:29:47.780754
456874,408193,459315,279176,22250,0,11:29:47.820960
460284,407302,448711,278147,22260,0,11:29:47.860552
464656,409254,457611,280770,22270,0,11:29:47.901008
480335,416492,502629,292241,22280,0,11:29:47.951123
477020,432385,524287,327936,22290,0,11:29:47.980911
481573,439352,524287,345104,22300,0,11:29:48.031098
481457,437359,524287,335299,22310,0,11:29:48.060905
472934,428552,521747,313007,22320,0,11:29:48.101054
464900,408657,475940,285311,22330,0,11:29:48.151293
464370,406361,453718,280632,22340,0,11:29:48.180436
468573,407454,461323,282657,22350,0,11:29:48.221055
479007,407446,493581,287125,22360,0,11:29:48.271068
480429,415254,524287,309800,22370,0,11:29:48.300984
482780,420044,524287,318173,22380,0,11:29:48.350969
479369,416992,516755,305611,22390,0,11:29:48.401289
461817,404615,465073,281688,22400,0,11:29:48.450445
459357,403361,453268,279515,22410,0,11:29:48.471335
464689,404941,465238,281708,22420,0,11:29:48.501336
472206,407336,493121,288002,22430,0,11:29:48.541043
476663,413985,522639,302983,22440,0,11:29:48.581272
482298,420135,524287,312899,22450,0,11:29:48.621018
477019,417817,515214,305583,22460,0,11:29:48.670881
455665,404487,457709,281853,22470,0,11:29:48.711051
448691,401481,441860,278814,22480,0,11:29:48.740996
457449,404835,461811,283629,22490,0,11:29:48.781109
481385,410952,520276,302020,22500,0,11:29:48.821384
478309,414142,524287,316657,22510,0,11:29:48.861091
482057,414638,524263,313912,22520,0,11:29:48.901037
467451,405258,482805,285812,22530,0,11:29:48.971030
450909,399319,438761,277068,22540,0,11:29:48.990967
453175,399058,438760,279072,22550,0,11:29:49.031022
458359,399854,451020,280018,22560,0,11:29:49.061049
470986,403840,492818,287067,22570,0,11:29:49.100988
473339,411671,513632,299085,22580,0,11:29:49.141363
464469,409280,485272,291597,22590,0,11:29:49.181123
454085,400900,449937,277196,22600,0,11:29:49.230940
452544,397452,436165,275786,22610,0,11:29:49.260954
453199,397551,438975,277481,22620,0,11:29:49.300423
462557,400479,460671,280324,22630,0,11:29:49.350878
477783,405009,497082,288810,22640,0,11:29:49.391112
478051,407991,505000,293890,22650,0,11:29:49.421034
474668,408760,496914,293575,22660,0,11:29:49.460942
459865,402093,461561,281930,22670,0,11:29:49.501261
453589,398141,443544,276801,22680,0,11:29:49.540825
460692,399780,458601,279635,22690,0,11:29:49.580852
470406,402002,482619,284381,22700,0,11:29:49.621094
474220,403477,496306,288100,22710,0,11:29:49.661331
475310,405632,501682,290576,22720,0,11:29:49.700719
477044,408089,506724,292925,22730,0,11:29:49.741067
476505,408971,506583,292515,22740,0,11:29:49.781016
465815,405114,484675,284433,22750,0,11:29:49.830168
456298,400598,465590,276583,22760,0,11:29:49.861051
463347,401354,479494,277723,22770,0,11:29:49.900949
466138,401574,485454,277921,22780,0,11:29:49.940887
473222,402013,497600,277812,22790,0,11:29:49.981301
476504,405953,504178,282073,22800,0,11:29:50.021194
478069,410341,512511,289755,22810,0,11:29:50.060697
476683,412739,514824,293777,22820,0,11:29:50.101004
470314,407722,501555,287650,22830,0,11:29:50.140792
474968,407758,510406,288268,22840,0,11:29:50.181284
478781,409164,520455,289820,22850,0,11:29:50.221526
474477,407903,509202,285014,22860,0,11:29:50.261179
473538,411478,512584,291792,22870,0,11:29:50.301139
470361,411898,511938,292909,22880,0,11:29:50.341067
465679,407970,503474,287469,22890,0,11:29:50.381107
464494,405067,500517,282848,22900,0,11:29:50.421499
464514,404542,500928,280622,22910,0,11:29:50.460221
463716,399936,490881,270906,22920,0,11:29:50.501157
467902,401494,493861,269994,22930,0,11:29:50.541086
470806,407875,508145,283562,22940,0,11:29:50.581060
473050,410781,520238,291618,22950,0,11:29:50.621377
477109,410396,524287,294305,22960,0,11:29:50.661102
479149,410138,524287,294160,22970,0,11:29:50.700201
476364,408689,522933,289886,22980,0,11:29:50.741083
470755,405801,509892,279570,22990,0,11:29:50.780898
472221,412314,514974,288959,23000,0,11:29:50.821205
479020,418093,524287,302807,23010,0,11:29:50.861030
481007,419897,524287,310745,23020,0,11:29:50.900284
482698,416365,524287,310214,23030,0,11:29:50.940948
479286,413010,524287,304451,23040,0,11:29:50.981141
471813,407952,521531,290183,23050,0,11:29:51.021085
466644,410273,513164,285512,23060,0,11:29:51.061029
469760,417137,521868,299887,23070,0,11:29:51.100380
476686,423156,524287,315838,23080,0,11:29:51.141164
478982,423061,524287,321076,23090,0,11:29:51.181104
482243,420622,524287,323223,23100,0,11:29:51.220965
480672,421776,524287,325142,23110,0,11:29:51.260145
464099,424472,524287,320036,23120,0,11:29:51.300679
451081,434139,524287,329911,23130,0,11:29:51.341025
459525,435993,524287,339561,23140,0,11:29:51.380994
471313,439420,524287,352143,23150,0,11:29:51.420990
475705,435736,524287,351567,23160,0,11:29:51.461339
479781,422809,524287,333457,23170,0,11:29:51.501920
474537,422176,524287,328649,23180,0,11:29:51.541060
450203,414155,515230,301835,23190,0,11:29:51.580920
432549,408014,486256,286681,23200,0,11:29:51.621317
440633,412032,505886,297648,23210,0,11:29:51.660922
458068,418605,524287,316046,23220,0,11:29:51.701016
462588,420821,524287,324153,23230,0,11:29:51.741040
464973,419034,524287,323798,23240,0,11:29:51.781052
458590,415715,524287,316102,23250,0,11:29:51.820983
441903,409458,506428,295552,23260,0,11:29:51.861052
434058,408497,487465,286946,23270,0,11:29:51.901149
441910,413634,508766,301511,23280,0,11:29:51.940991
463032,423512,524287,327989,23290,0,11:29:51.980894
467655,425712,524287,337854,23300,0,11:29:52.020664
467731,416552,524287,327162,23310,0,11:29:52.080824
457633,410896,524287,314613,23320,0,11:29:52.101011
432377,395366,492647,275965,23330,0,11:29:52.152871
420034,391755,459148,261790,23340,0,11:29:52.185783
424477,391861,470979,267502,23350,0,11:29:52.220691
431918,393261,492244,275977,23360,0,11:29:52.260950
430293,390691,491643,275069,23370,0,11:29:52.300992
429004,387225,488054,269691,23380,0,11:29:52.341134
426536,385413,479236,264218,23390,0,11:29:52.381246
421440,387184,459038,258811,23400,0,11:29:52.420860
420781,391131,448115,259388,23410,0,11:29:52.461094
428092,392862,463743,264816,23420,0,11:29:52.510236
440941,396340,495192,276568,23430,0,11:29:52.541132
435052,396650,490694,278856,23440,0,11:29:52.581139
432098,396353,488908,279216,23450,0,11:29:52.621270
431471,395650,487846,277740,23460,0,11:29:52.661064
429817,393942,478944,272517,23470,0,11:29:52.700952
423306,395026,455289,266034,23480,0,11:29:52.741297
425607,398971,463550,273001,23490,0,11:29:52.790635
443694,406132,502863,290171,23500,0,11:29:52.820722
449370,413914,518396,305654,23510,0,11:29:52.860927
459386,417756,524287,315360,23520,0,11:29:52.900993
459435,421737,524287,322170,23530,0,11:29:52.941362
436779,429987,515598,330826,23540,0,11:29:52.980850
425114,443873,508710,352349,23550,0,11:29:53.020961
442037,442827,522928,353328,23560,0,11:29:53.060822
465520,449374,524287,378639,23570,0,11:29:53.100873
482731,451208,524287,394021,23580,0,11:29:53.141055
492160,446403,524287,392065,23590,0,11:29:53.180954
484422,452758,524287,411039,23600,0,11:29:53.221164
443800,460271,521898,423785,23610,0,11:29:53.261032
424571,458246,509049,406221,23620,0,11:29:53.301307
454467,444832,524287,387040,23630,0,11:29:53.340984
500315,449287,524287,465898,23640,0,11:29:53.380927
520871,465666,524287,508275,23650,0,11:29:53.420652
493669,441822,524287,416951,23660,0,11:29:53.461080
477051,428225,524287,366571,23670,0,11:29:53.501259
433402,436479,522151,359520,23680,0,11:29:53.541134
432092,430161,516531,340392,23690,0,11:29:53.581654
459524,437799,524287,371446,23700,0,11:29:53.620962
503672,453627,524287,461281,23710,0,11:29:53.661020
503550,451099,524287,442638,23720,0,11:29:53.700541
488052,433600,524287,388528,23730,0,11:29:53.740447
462779,403558,517705,305175,23740,0,11:29:53.780933
435401,388577,477754,262989,23750,0,11:29:53.820576
440314,394554,486603,273471,23760,0,11:29:53.871099
454002,410696,515947,301806,23770,0,11:29:53.900938
472014,431017,524287,344511,23780,0,11:29:53.950435
499001,448647,524287,405292,23790,0,11:29:53.980991
498526,447994,524287,405301,23800,0,11:29:54.021000
456978,431567,524287,346043,23810,0,11:29:54.060974
441600,431819,522683,335329,23820,0,11:29:54.100972
449858,440313,524287,353810,23830,0,11:29:54.141050
454281,442123,524287,364363,23840,0,11:29:54.180979
466054,445600,524287,379031,23850,0,11:29:54.230968
479852,446300,524287,389316,23860,0,11:29:54.261097
462368,438570,524287,367489,23870,0,11:29:54.300653
444269,432509,524287,343590,23880,0,11:29:54.340496
448051,438319,524287,354085,23890,0,11:29:54.380983
456058,441061,524287,365588,23900,0,11:29:54.410167
454846,436576,524287,360152,23910,0,11:29:54.461116
452354,427001,524287,342566,23920,0,11:29:54.501053
443835,414205,520447,313222,23930,0,11:29:54.531245
441762,415178,517289,306004,23940,0,11:29:54.580829
448937,425479,524287,333256,23950,0,11:29:54.610870
451668,427221,524287,344291,23960,0,11:29:54.650370
456654,428359,524287,347948,23970,0,11:29:54.700638
458427,428202,524287,345862,23980,0,11:29:54.730762
