PPG_IR1,PPG_IR2,PPG_G1,PPG_G2,PacketCounter,PacketLoss,Timestamp
154592,140003,202130,203862,500,10,10:50:02.161203
154587,139993,202137,203866,510,0,10:50:02.200098
154572,139999,202130,203861,520,0,10:50:02.240037
154584,140000,202129,203862,530,0,10:50:02.279798
154573,139987,202128,203860,540,0,10:50:02.320150
154594,139993,202098,203854,550,0,10:50:02.360554
154548,139985,202124,203849,560,0,10:50:02.400371
154606,139989,202127,203855,570,0,10:50:02.440573
154574,139990,202143,203853,580,0,10:50:02.480473
154575,139985,202062,203850,590,0,10:50:02.520349
154568,139988,202125,203848,600,0,10:50:02.560612
154577,139993,202118,203855,610,0,10:50:02.599971
154566,139976,202115,203849,620,0,10:50:02.639920
154574,139990,202119,203851,630,0,10:50:02.680340
154588,139985,202124,203851,640,0,10:50:02.719917
154566,139971,202114,203841,650,0,10:50:02.759636
154570,139980,202119,203857,660,0,10:50:02.801172
154592,139985,202114,203847,670,0,10:50:02.841051
154556,139972,202126,203843,680,0,10:50:02.880436
154549,139972,202113,203847,690,0,10:50:02.920378
154589,139991,202127,203846,700,0,10:50:02.960344
154533,139979,202104,203844,710,0,10:50:03.000598
154550,139968,202072,203840,720,0,10:50:03.039849
154554,139968,202118,203834,730,0,10:50:03.080118
154556,139967,202123,203847,740,0,10:50:03.120305
154555,139969,202105,203837,750,0,10:50:03.160384
154557,139971,202101,203837,760,0,10:50:03.200087
154558,139972,202105,203837,770,0,10:50:03.240456
154556,139967,202097,203837,780,0,10:50:03.279676
154562,139967,202101,203831,790,0,10:50:03.320996
154554,139972,202103,203839,800,0,10:50:03.359870
154556,139950,202099,203833,810,0,10:50:03.400018
154539,139962,202109,203831,820,0,10:50:03.440633
154547,139961,202094,203836,830,0,10:50:03.480203
154522,139959,202095,203834,840,0,10:50:03.510468
154564,139962,202101,203828,850,0,10:50:03.550457
154541,139960,202123,203833,860,0,10:50:03.600096
154546,139959,202106,203835,870,0,10:50:03.640556
154549,139963,202153,203828,880,0,10:50:03.680681
154539,139955,202075,203825,890,0,10:50:03.720207
154550,139959,202091,203821,900,0,10:50:03.759634
154547,139953,202099,203829,910,0,10:50:03.800547
154554,139965,202090,203824,920,0,10:50:03.830606
154542,139955,202088,203824,930,0,10:50:03.871263
154540,139947,202087,203823,940,0,10:50:03.910633
154541,139957,202084,203821,950,0,10:50:03.949724
154541,139956,202088,203826,960,0,10:50:03.990011
154542,139955,202086,203817,970,0,10:50:04.030242
154530,139951,202082,203816,980,0,10:50:04.070376
154567,139955,202080,203816,990,0,10:50:04.110284
154518,139962,202108,203815,1000,0,10:50:04.150269
154535,139950,202066,203816,1010,0,10:50:04.199816
154535,139952,202078,203819,1020,0,10:50:04.230215
154530,139951,202061,203815,1030,0,10:50:04.270800
154522,139933,202083,203819,1040,0,10:50:04.310109
154534,139953,202080,203821,1050,0,10:50:04.350488
154541,139957,202080,203814,1060,0,10:50:04.390161
154525,139938,202083,203810,1070,0,10:50:04.430558
154526,139938,202082,203811,1080,0,10:50:04.470707
154524,139941,202077,203810,1090,0,10:50:04.509743
154525,139936,202082,203812,1100,0,10:50:04.549693
154547,139935,202081,203808,1110,0,10:50:04.589738
154498,139935,202077,203809,1120,0,10:50:04.630441
154516,139935,202077,203811,1130,0,10:50:04.670249
154500,139941,202076,203810,1140,0,10:50:04.709576
154527,139941,202023,203805,1150,0,10:50:04.749552
154521,139935,202091,203803,1160,0,10:50:04.790529
154518,139927,202087,203811,1170,0,10:50:04.830224
154524,139934,202075,203809,1180,0,10:50:04.869875
154523,139933,202074,203799,1190,0,10:50:04.909673
154516,139931,202077,203803,1200,0,10:50:04.950491
154520,139931,202077,203803,1210,0,10:50:04.989858
154515,139926,202075,203806,1220,0,10:50:05.030770
154511,139932,202071,203801,1230,0,10:50:05.069918
154514,139927,202072,203807,1240,0,10:50:05.110738
154529,139934,202072,203816,1250,0,10:50:05.150592
154507,139931,202070,203802,1260,0,10:50:05.190150
154497,139917,202066,203804,1270,0,10:50:05.230894
154538,139934,202073,203805,1280,0,10:50:05.269732
154515,139931,202071,203799,1290,0,10:50:05.310787
154514,139928,202071,203801,1300,0,10:50:05.349896
154511,139922,202091,203803,1310,0,10:50:05.390433
154509,139925,202063,203799,1320,0,10:50:05.430403
154506,139922,202063,203794,1330,0,10:50:05.469938
154516,139921,202065,203798,1340,0,10:50:05.512201
154510,139925,202066,203798,1350,0,10:50:05.550267
154510,139923,202062,203805,1360,0,10:50:05.589945
154511,139920,202061,203793,1370,0,10:50:05.630723
154506,139914,202061,203792,1380,0,10:50:05.670642
154497,139921,202063,203799,1390,0,10:50:05.710104
154479,139907,202063,203794,1400,0,10:50:05.749740
154526,139913,202056,203793,1410,0,10:50:05.789938
154548,139923,202060,203797,1420,0,10:50:05.830988
154469,139916,202068,203793,1430,0,10:50:05.870516
154500,139913,202065,203789,1440,0,10:50:05.909977
154498,139913,202039,203791,1450,0,10:50:05.950417
154509,139922,202033,203797,1460,0,10:50:05.991786
154495,139911,202056,203792,1470,0,10:50:06.029741
154515,139925,202055,203788,1480,0,10:50:06.069835
154502,139916,202062,203794,1490,0,10:50:06.110883
154494,139909,202055,203793,1500,0,10:50:06.149926
154495,139904,202054,203784,1510,0,10:50:06.190546
154494,139909,202050,203783,1520,0,10:50:06.230501
154491,139910,202049,203787,1530,0,10:50:06.270020
154509,139910,202049,203785,1540,0,10:50:06.310212
154505,139911,202051,203790,1550,0,10:50:06.351381
154472,139902,202057,203792,1560,0,10:50:06.390340
154489,139909,202070,203776,1570,0,10:50:06.429923
154500,139909,202040,203789,1580,0,10:50:06.470483
154498,139912,202029,203782,1590,0,10:50:06.510124
154501,139913,202044,203779,1600,0,10:50:06.550027
154492,139901,202050,203778,1610,0,10:50:06.590770
154482,139895,202051,203782,1620,0,10:50:06.630751
154490,139910,202044,203776,1630,0,10:50:06.670745
154498,139910,202041,203778,1640,0,10:50:06.710522
154490,139904,202046,203786,1650,0,10:50:06.749901
154489,139906,202047,203784,1660,0,10:50:06.790883
154478,139899,202045,203783,1670,0,10:50:06.829792
154507,139909,202044,203777,1680,0,10:50:06.871194
154474,139906,202041,203780,1690,0,10:50:06.910853
154478,139899,202037,203775,1700,0,10:50:06.950870
154519,139904,202066,203776,1710,0,10:50:06.990710
154483,139901,202018,203777,1720,0,10:50:07.030792
154487,139902,202030,203772,1730,0,10:50:07.071160
154488,139903,202111,203774,1740,0,10:50:07.109872
154482,139897,202030,203779,1750,0,10:50:07.150530
154481,139894,202040,203778,1760,0,10:50:07.190451
154489,139907,202035,203773,1770,0,10:50:07.230491
154490,139912,202032,203773,1780,0,10:50:07.269670
154480,139900,202039,203776,1790,0,10:50:07.309655
154480,139901,202035,203772,1800,0,10:50:07.350563
154482,139896,202035,203774,1810,0,10:50:07.389895
154480,139898,202034,203766,1820,0,10:50:07.431454
154442,139888,202031,203771,1830,0,10:50:07.471108
154482,139888,202034,203771,1840,0,10:50:07.510919
154494,139894,202028,203767,1850,0,10:50:07.549850
154454,139887,202030,203769,1860,0,10:50:07.589929
154473,139892,202053,203761,1870,0,10:50:07.629845
154470,139885,202034,203763,1880,0,10:50:07.670751
154468,139893,202013,203768,1890,0,10:50:07.710266
154472,139882,202031,203764,1900,0,10:50:07.750853
154470,139888,202030,203764,1910,0,10:50:07.791114
154473,139891,202035,203775,1920,0,10:50:07.829597
154470,139891,202030,203763,1930,0,10:50:07.869718
154462,139876,202026,203762,1940,0,10:50:07.909934
154471,139888,202028,203759,1950,0,10:50:07.949832
154465,139884,202029,203766,1960,0,10:50:07.990145
154477,139886,202027,203762,1970,0,10:50:08.030076
154492,139886,202031,203765,1980,0,10:50:08.069970
154469,139885,202029,203768,1990,0,10:50:08.109737
154446,139877,202038,203750,2000,0,10:50:08.149988
154475,139892,202034,203755,2010,0,10:50:08.190777
154471,139883,201981,203755,2020,0,10:50:08.230893
154465,139883,202024,203759,2030,0,10:50:08.269805
154466,139886,202017,203754,2040,0,10:50:08.311034
154466,139886,202017,203753,2050,0,10:50:08.351275
154468,139886,202020,203756,2060,0,10:50:08.389742
154473,139890,202019,203760,2070,0,10:50:08.431007
154461,139878,202019,203753,2080,0,10:50:08.470602
154468,139885,202022,203761,2090,0,10:50:08.510301
154458,139876,202017,203751,2100,0,10:50:08.549838
154471,139882,202010,203749,2110,0,10:50:08.591726
154455,139876,202020,203756,2120,0,10:50:08.630161
154388,139872,202014,203751,2130,0,10:50:08.670360
154474,139887,202014,203755,2140,0,10:50:08.710587
154445,139872,201995,203748,2150,0,10:50:08.750748
154466,139885,202002,203756,2160,0,10:50:08.790720
154455,139873,202059,203753,2170,0,10:50:08.830796
154450,139872,201997,203749,2180,0,10:50:08.870179
154444,139869,202007,203751,2190,0,10:50:08.910310
154458,139875,202009,203744,2200,0,10:50:08.950482
154457,139876,202011,203743,2210,0,10:50:08.989904
154453,139873,202017,203753,2220,0,10:50:09.029817
154452,139874,202008,203749,2230,0,10:50:09.099194
154450,139872,202008,203747,2240,0,10:50:09.111163
154462,139880,202011,203749,2250,0,10:50:09.152052
154461,139881,201996,203756,2260,0,10:50:09.210895
154470,139871,202009,203748,2270,0,10:50:09.229884
154475,139870,201993,203740,2280,0,10:50:09.269566
154439,139866,202016,203747,2290,0,10:50:09.309582
154462,139880,202030,203742,2300,0,10:50:09.350132
154442,139862,202031,203740,2310,0,10:50:09.389995
154449,139871,202002,203749,2320,0,10:50:09.445846
154456,139873,202012,203743,2330,0,10:50:09.470612
154454,139866,202011,203746,2340,0,10:50:09.509508
154447,139865,202005,203742,2350,0,10:50:09.550399
154444,139865,202006,203745,2360,0,10:50:09.590125
154412,139861,202000,203745,2370,0,10:50:09.630017
154451,139868,202008,203742,2380,0,10:50:09.669938
154447,139864,202004,203744,2390,0,10:50:09.709883
154453,139863,201973,203740,2400,0,10:50:09.750369
154457,139866,202008,203743,2410,0,10:50:09.790051
154418,139854,202011,203748,2420,0,10:50:09.829780
154460,139857,202022,203751,2430,0,10:50:09.870546
154446,139867,202001,203746,2440,0,10:50:09.910703
154443,139863,201971,203747,2450,0,10:50:09.950655
154441,139864,202040,203749,2460,0,10:50:09.990720
154447,139863,202002,203745,2470,0,10:50:10.030919
154440,139858,202006,203740,2480,0,10:50:10.070144
154446,139865,202012,203750,2490,0,10:50:10.110761
154446,139867,202003,203743,2500,0,10:50:10.149871
154435,139854,202007,203744,2510,0,10:50:10.190776
154435,139859,202006,203746,2520,0,10:50:10.229944
154444,139856,202005,203735,2530,0,10:50:10.270375
154444,139855,202006,203744,2540,0,10:50:10.310113
154441,139862,202003,203739,2550,0,10:50:10.350579
154380,139850,201995,203735,2560,0,10:50:10.390795
154474,139855,202009,203734,2570,0,10:50:10.430082
154400,139845,201991,203732,2580,0,10:50:10.470320
154441,139862,201971,203742,2590,0,10:50:10.510419
154430,139854,202020,203730,2600,0,10:50:10.551232
154436,139860,201965,203732,2610,0,10:50:10.590758
154444,139871,201995,203740,2620,0,10:50:10.630049
154429,139851,201990,203731,2630,0,10:50:10.670346
154432,139850,201997,203736,2640,0,10:50:10.709484
154452,139865,201995,203739,2650,0,10:50:10.750576
154436,139855,201991,203737,2660,0,10:50:10.789668
154426,139851,201994,203736,2670,0,10:50:10.829746
154428,139849,201999,203747,2680,0,10:50:10.870916
154423,139854,202009,203737,2690,0,10:50:10.909997
154453,139856,201984,203738,2700,0,10:50:10.950444
154446,139850,201994,203734,2710,0,10:50:10.989824
154428,139861,201981,203741,2720,0,10:50:11.030112
154440,139860,202007,203736,2730,0,10:50:11.070650
154426,139848,201958,203732,2740,0,10:50:11.109663
154428,139852,201996,203737,2750,0,10:50:11.150437
154428,139848,201986,203726,2760,0,10:50:11.190479
154430,139851,201988,203728,2770,0,10:50:11.230076
154437,139853,201991,203725,2780,0,10:50:11.270455
154424,139843,201987,203729,2790,0,10:50:11.310731
154436,139851,201982,203719,2800,0,10:50:11.350416
154410,139836,201986,203728,2810,0,10:50:11.390353
154433,139853,201985,203732,2820,0,10:50:11.430248
154430,139854,201986,203726,2830,0,10:50:11.470680
154436,139846,201969,203725,2840,0,10:50:11.510714
154396,139845,201985,203726,2850,0,10:50:11.550223
154446,139850,201984,203729,2860,0,10:50:11.589648
154412,139839,202017,203723,2870,0,10:50:11.630572
154421,139846,201935,203722,2880,0,10:50:11.670766
154414,139842,202055,203732,2890,0,10:50:11.710164
154430,139852,201979,203729,2900,0,10:50:11.750601
154425,139851,201984,203722,2910,0,10:50:11.790627
154423,139845,201985,203722,2920,0,10:50:11.831044
154420,139844,201977,203716,2930,0,10:50:11.870512
154424,139853,201977,203726,2940,0,10:50:11.910768
154421,139846,201977,203727,2950,0,10:50:11.950579
154430,139845,201979,203724,2960,0,10:50:11.990572
154425,139847,201982,203728,2970,0,10:50:12.030781
154376,139843,201979,203727,2980,0,10:50:12.070643
154493,139854,202003,203722,2990,0,10:50:12.110300
154367,139838,201977,203727,3000,0,10:50:12.150723
154418,139842,201951,203725,3010,0,10:50:12.190823
154410,139833,202008,203720,3020,0,10:50:12.230278
154412,139832,201961,203713,3030,0,10:50:12.270177
154419,139844,201981,203726,3040,0,10:50:12.309692
154416,139834,201980,203722,3050,0,10:50:12.349603
154421,139847,201974,203719,3060,0,10:50:12.390057
154417,139844,201987,203729,3070,0,10:50:12.429856
154418,139834,201978,203725,3080,0,10:50:12.469776
154411,139837,201977,203727,3090,0,10:50:12.510312
154429,139834,201979,203725,3100,0,10:50:12.550720
154402,139842,201996,203720,3110,0,10:50:12.590582
154442,139837,201978,203732,3120,0,10:50:12.630779
154388,139831,201976,203723,3130,0,10:50:12.670809
154399,139839,201954,203724,3140,0,10:50:12.710756
154415,139841,201985,203717,3150,0,10:50:12.750450
154414,139835,201935,203715,3160,0,10:50:12.790776
154409,139829,201986,203723,3170,0,10:50:12.830821
154415,139840,201970,203720,3180,0,10:50:12.870657
154410,139835,201975,203717,3190,0,10:50:12.910399
154413,139834,201972,203721,3200,0,10:50:12.950351
154410,139837,201973,203720,3210,0,10:50:12.990211
154416,139834,201970,203711,3220,0,10:50:13.030270
154402,139832,201969,203715,3230,0,10:50:13.069854
154404,139835,201967,203716,3240,0,10:50:13.109840
154396,139825,201964,203710,3250,0,10:50:13.149728
154419,139827,201952,203713,3260,0,10:50:13.190083
154351,139833,201968,203714,3270,0,10:50:13.230342
154410,139831,201964,203708,3280,0,10:50:13.269830
154394,139831,201983,203717,3290,0,10:50:13.310318
154410,139830,201943,203717,3300,0,10:50:13.350403
154402,139830,202020,203712,3310,0,10:50:13.390807
154399,139820,201946,203704,3320,0,10:50:13.430751
154396,139820,201965,203712,3330,0,10:50:13.470560
154402,139823,201967,203713,3340,0,10:50:13.509687
154408,139834,201970,203709,3350,0,10:50:13.550379
154396,139822,201961,203702,3360,0,10:50:13.590812
154401,139826,201961,203706,3370,0,10:50:13.630812
154406,139831,201964,203707,3380,0,10:50:13.670814
154401,139824,201965,203709,3390,0,10:50:13.709646
154423,139825,201962,203705,3400,0,10:50:13.749952
154390,139827,201958,203701,3410,0,10:50:13.790384
154456,139834,201970,203709,3420,0,10:50:13.830593
154393,139826,201975,203696,3430,0,10:50:13.870623
154402,139826,201934,203710,3440,0,10:50:13.910745
154393,139817,201988,203709,3450,0,10:50:13.950295
154396,139826,201945,203704,3460,0,10:50:13.990658
154402,139832,201960,203706,3470,0,10:50:14.030054
154392,139820,201959,203707,3480,0,10:50:14.070084
154396,139822,201964,203712,3490,0,10:50:14.109909
154398,139825,201958,203697,3500,0,10:50:14.150028
154400,139819,201957,203702,3510,0,10:50:14.190715
154403,139822,201959,203701,3520,0,10:50:14.230748
154397,139817,201955,203697,3530,0,10:50:14.270569
154394,139819,201963,203705,3540,0,10:50:14.310514
154363,139819,201961,203709,3550,0,10:50:14.350245
154391,139815,201967,203701,3560,0,10:50:14.390668
154389,139822,201954,203701,3570,0,10:50:14.430642
154398,139829,201942,203698,3580,0,10:50:14.470546
154398,139828,201953,203704,3590,0,10:50:14.510120
154382,139809,201943,203699,3600,0,10:50:14.550296
154390,139819,201953,203699,3610,0,10:50:14.590176
154401,139826,201955,203700,3620,0,10:50:14.630654
154388,139814,201955,203699,3630,0,10:50:14.670252
154392,139808,201949,203698,3640,0,10:50:14.710743
154392,139816,201951,203697,3650,0,10:50:14.750391
154387,139817,201948,203696,3660,0,10:50:14.790317
154395,139811,201950,203700,3670,0,10:50:14.830650
154385,139820,201964,203698,3680,0,10:50:14.870314
154399,139807,201945,203698,3690,0,10:50:14.910655
154393,139817,201951,203701,3700,0,10:50:14.950745
154372,139804,201939,203691,3710,0,10:50:14.990326
154382,139816,201950,203697,3720,0,10:50:15.030713
154381,139809,201944,203702,3730,0,10:50:15.070409
154390,139816,201967,203705,3740,0,10:50:15.110535
154384,139807,201937,203699,3750,0,10:50:15.150332
154385,139815,201953,203702,3760,0,10:50:15.190785
154378,139804,201954,203703,3770,0,10:50:15.230812
154375,139803,201952,203703,3780,0,10:50:15.270891
154400,139810,201952,203700,3790,0,10:50:15.310671
154384,139819,201951,203699,3800,0,10:50:15.350459
154382,139811,201951,203700,3810,0,10:50:15.390139
154378,139812,201951,203704,3820,0,10:50:15.430518
154384,139814,201934,203693,3830,0,10:50:15.470319
154369,139807,201949,203698,3840,0,10:50:15.510240
154403,139812,201943,203694,3850,0,10:50:15.589028
154361,139812,201948,203693,3860,0,10:50:15.591021
154391,139814,201956,203697,3870,0,10:50:15.630511
154384,139813,201978,203700,3880,0,10:50:15.670228
154378,139804,201937,203690,3890,0,10:50:15.709571
154393,139820,201947,203694,3900,0,10:50:15.750086
154383,139804,201940,203684,3910,0,10:50:15.790016
154381,139813,201941,203684,3920,0,10:50:15.830316
154382,139807,201945,203690,3930,0,10:50:15.869511
154369,139807,201944,203693,3940,0,10:50:15.910238
154382,139811,201942,203687,3950,0,10:50:15.950177
154383,139803,201945,203693,3960,0,10:50:15.990308
154397,139811,201945,203693,3970,0,10:50:16.029834
154391,139801,201944,203689,3980,0,10:50:16.070157
154417,139808,201952,203688,3990,0,10:50:16.110986
154380,139811,201953,203692,4000,0,10:50:16.150853
154394,139819,201945,203686,4010,0,10:50:16.190612
154379,139806,201914,203692,4020,0,10:50:16.229862
154384,139810,201939,203693,4030,0,10:50:16.270638
154372,139797,201938,203684,4040,0,10:50:16.310227
154375,139806,201937,203678,4050,0,10:50:16.350260
154379,139805,201941,203691,4060,0,10:50:16.390687
154377,139801,201934,203679,4070,0,10:50:16.430320
154379,139804,201932,203678,4080,0,10:50:16.470050
154389,139813,201936,203682,4090,0,10:50:16.514477
154389,139813,201936,203685,4100,0,10:50:16.550002
154376,139804,201946,203684,4110,0,10:50:16.590642
154381,139802,201933,203686,4120,0,10:50:16.630196
154355,139801,201958,203684,4130,0,10:50:16.670571
154389,139804,201926,203680,4140,0,10:50:16.710256
154369,139798,201954,203692,4150,0,10:50:16.750332
154383,139811,201896,203686,4160,0,10:50:16.790194
154377,139806,201957,203682,4170,0,10:50:16.829951
154384,139805,201920,203679,4180,0,10:50:16.870526
154382,139811,201933,203678,4190,0,10:50:16.909657
154374,139800,201933,203682,4200,0,10:50:16.950124
154383,139815,201935,203679,4210,0,10:50:16.990537
154389,139800,201929,203682,4220,0,10:50:17.030149
154365,139795,201932,203680,4230,0,10:50:17.070552
154373,139801,201934,203683,4240,0,10:50:17.110112
154342,139798,201943,203685,4250,0,10:50:17.150576
154377,139808,201925,203685,4260,0,10:50:17.190809
154378,139800,201934,203683,4270,0,10:50:17.230350
154345,139804,201930,203677,4280,0,10:50:17.270091
154348,139796,201946,203686,4290,0,10:50:17.310338
154371,139795,201947,203689,4300,0,10:50:17.350362
154356,139788,201909,203678,4310,0,10:50:17.390719
154372,139801,201947,203687,4320,0,10:50:17.430377
154363,139798,201932,203684,4330,0,10:50:17.470357
154374,139799,201934,203679,4340,0,10:50:17.510651
154373,139797,201930,203676,4350,0,10:50:17.549932
154368,139797,201930,203683,4360,0,10:50:17.590810
154353,139793,201929,203679,4370,0,10:50:17.629945
154368,139802,201923,203670,4380,0,10:50:17.670388
154373,139803,201931,203680,4390,0,10:50:17.710131
154376,139791,201931,203682,4400,0,10:50:17.750025
154379,139794,201924,203677,4410,0,10:50:17.790450
154334,139791,201931,203680,4420,0,10:50:17.829787
154393,139794,201942,203677,4430,0,10:50:17.870008
154371,139797,201914,203676,4440,0,10:50:17.910487
154365,139787,201904,203672,4450,0,10:50:17.959357
154375,139801,201970,203676,4460,0,10:50:17.990036
154363,139789,201923,203670,4470,0,10:50:18.029795
154362,139791,201930,203676,4480,0,10:50:18.070637
154365,139791,201929,203676,4490,0,10:50:18.109988
154361,139787,201927,203671,4500,0,10:50:18.150796
154365,139793,201923,203672,4510,0,10:50:18.190644
154366,139785,201926,203675,4520,0,10:50:18.230741
154370,139792,201926,203678,4530,0,10:50:18.269637
154361,139789,201932,203676,4540,0,10:50:18.311331
154337,139792,201924,203668,4550,0,10:50:18.350294
154351,139794,201945,203673,4560,0,10:50:18.390774
154408,139791,201918,203667,4570,0,10:50:18.430657
154352,139801,201926,203665,4580,0,10:50:18.470392
154362,139790,201944,203679,4590,0,10:50:18.510798
154354,139789,201964,203672,4600,0,10:50:18.550210
154364,139787,201878,203667,4610,0,10:50:18.590789
154370,139799,201922,203670,4620,0,10:50:18.630467
154365,139792,201928,203683,4630,0,10:50:18.670773
154379,139790,201922,203671,4640,0,10:50:18.710785
154372,139788,201923,203670,4650,0,10:50:18.749925
154349,139784,201924,203673,4660,0,10:50:18.790648
154375,139800,201924,203667,4670,0,10:50:18.829517
154337,139774,201929,203674,4680,0,10:50:18.870638
154367,139788,201914,203680,4690,0,10:50:18.910778
154371,139781,201916,203664,4700,0,10:50:18.950318
154360,139784,201917,203666,4710,0,10:50:18.990402
154332,139782,201925,203674,4720,0,10:50:19.030569
154359,139787,201927,203671,4730,0,10:50:19.100341
154357,139784,201880,203671,4740,0,10:50:19.110383
154357,139780,201910,203668,4750,0,10:50:19.170045
154350,139780,201926,203671,4760,0,10:50:19.190814
154356,139780,201919,203661,4770,0,10:50:19.262302
154362,139788,201919,203669,4780,0,10:50:19.282249
154353,139785,201917,203665,4790,0,10:50:19.335108
154359,139779,201920,203670,4800,0,10:50:19.349791
154382,139793,201918,203666,4810,0,10:50:19.389762
154354,139790,201916,203667,4820,0,10:50:19.450532
154355,139779,201917,203662,4830,0,10:50:19.469944
154380,139781,201910,203664,4840,0,10:50:19.511249
154294,139777,201919,203665,4850,0,10:50:19.550226
154382,139781,201928,203667,4860,0,10:50:19.590367
154332,139775,201927,203667,4870,0,10:50:19.630419
154355,139781,201874,203668,4880,0,10:50:19.680863
154356,139778,201996,203669,4890,0,10:50:19.710397
154357,139785,201897,203663,4900,0,10:50:19.770128
154364,139787,201915,203660,4910,0,10:50:19.790805
154365,139786,201917,203665,4920,0,10:50:19.840859
154346,139775,201917,203661,4930,0,10:50:19.879549
154372,139783,201915,203664,4940,0,10:50:19.910466
154345,139778,201917,203662,4950,0,10:50:19.951280
154348,139779,201904,203668,4960,0,10:50:20.000418
154339,139778,201911,203659,4970,0,10:50:20.070156
154384,139785,201918,203663,4980,0,10:50:20.080129
154344,139784,201919,203666,4990,0,10:50:20.140447
154405,139785,201975,203662,5000,0,10:50:20.150419
154340,139780,201902,203665,5010,0,10:50:20.210264
154354,139783,201932,203663,5020,0,10:50:20.230210
154352,139783,201932,203658,5030,0,10:50:20.280992
154352,139784,201890,203657,5040,0,10:50:20.319752
154351,139780,201914,203665,5050,0,10:50:20.351176
154352,139783,201915,203665,5060,0,10:50:20.389945
154335,139781,201911,203654,5070,0,10:50:20.439834
154346,139774,201911,203658,5080,0,10:50:20.490326
154368,139784,201913,203655,5090,0,10:50:20.509588
154346,139780,201911,203655,5100,0,10:50:20.560344
154355,139775,201910,203660,5110,0,10:50:20.589754
154359,139781,201913,203664,5120,0,10:50:20.650488
154368,139776,201901,203655,5130,0,10:50:20.670437
154363,139769,201923,203666,5140,0,10:50:20.740777
154353,139781,201939,203651,5150,0,10:50:20.750082
154350,139779,201923,203653,5160,0,10:50:20.810462
154340,139773,201842,203650,5170,0,10:50:20.830413
154341,139770,201895,203642,5180,0,10:50:20.880793
154345,139775,201907,203655,5190,0,10:50:20.951022
154348,139776,201907,203652,5200,0,10:50:20.959591
154348,139781,201900,203652,5210,0,10:50:20.990067
154351,139784,201903,203654,5220,0,10:50:21.029508
154353,139768,201903,203651,5230,0,10:50:21.070516
154333,139777,201903,203654,5240,0,10:50:21.111178
154334,139767,201900,203651,5250,0,10:50:21.140697
154360,139778,201908,203666,5260,0,10:50:21.189793
154370,139781,201907,203654,5270,0,10:50:21.230698
154303,139773,201896,203643,5280,0,10:50:21.261948
154362,139776,201904,203654,5290,0,10:50:21.300672
154331,139771,201898,203650,5300,0,10:50:21.340657
154337,139766,201891,203649,5310,0,10:50:21.380698
154335,139762,201964,203655,5320,0,10:50:21.419961
154347,139778,201884,203651,5330,0,10:50:21.460653
154345,139774,201904,203653,5340,0,10:50:21.500040
154345,139773,201906,203652,5350,0,10:50:21.540107
154338,139768,201903,203656,5360,0,10:50:21.580031
154342,139777,201899,203641,5370,0,10:50:21.619904
154341,139766,201897,203642,5380,0,10:50:21.660890
154338,139772,201901,203650,5390,0,10:50:21.700220
154343,139773,201894,203642,5400,0,10:50:21.740138
154348,139770,201890,203640,5410,0,10:50:21.780200
154333,139761,201895,203645,5420,0,10:50:21.819825
154363,139771,201897,203646,5430,0,10:50:21.860661
154332,139771,201900,203641,5440,0,10:50:21.900596
154339,139769,201864,203642,5450,0,10:50:21.940532
154342,139778,201902,203648,5460,0,10:50:21.979613
154337,139764,201898,203646,5470,0,10:50:22.019739
154342,139769,201898,203643,5480,0,10:50:22.061613
154336,139769,201900,203648,5490,0,10:50:22.100765
154334,139763,201890,203640,5500,0,10:50:22.140365
154346,139773,201892,203640,5510,0,10:50:22.180260
154335,139769,201897,203642,5520,0,10:50:22.220575
154339,139767,201898,203646,5530,0,10:50:22.260663
154332,139765,201894,203640,5540,0,10:50:22.300069
154353,139765,201897,203645,5550,0,10:50:22.339962
154321,139772,201895,203640,5560,0,10:50:22.379753
154344,139755,201895,203642,5570,0,10:50:22.420621
154334,139766,201932,203645,5580,0,10:50:22.460383
154330,139766,201862,203644,5590,0,10:50:22.499723
154325,139759,201920,203643,5600,0,10:50:22.550072
154339,139768,201887,203645,5610,0,10:50:22.580274
154329,139752,201894,203640,5620,0,10:50:22.620820
154324,139755,201889,203637,5630,0,10:50:22.660016
154327,139757,201894,203641,5640,0,10:50:22.700110
154327,139758,201893,203641,5650,0,10:50:22.740866
154338,139768,201894,203637,5660,0,10:50:22.780061
154325,139752,201886,203633,5670,0,10:50:22.820003
154332,139754,201892,203641,5680,0,10:50:22.860041
154380,139769,201891,203635,5690,0,10:50:22.899837
154327,139763,201894,203637,5700,0,10:50:22.940153
154339,139760,201891,203643,5710,0,10:50:22.980032
154315,139761,201932,203640,5720,0,10:50:23.020024
154336,139767,201822,203636,5730,0,10:50:23.060030
154338,139769,201924,203644,5740,0,10:50:23.100194
154328,139758,201864,203631,5750,0,10:50:23.140023
154334,139765,201889,203638,5760,0,10:50:23.181622
154335,139763,201893,203637,5770,0,10:50:23.220009
154334,139766,201885,203638,5780,0,10:50:23.259995
154331,139759,201893,203641,5790,0,10:50:23.300036
154324,139757,201891,203632,5800,0,10:50:23.339977
154329,139757,201895,203641,5810,0,10:50:23.379780
154332,139756,201886,203633,5820,0,10:50:23.420400
154328,139745,201884,203631,5830,0,10:50:23.459782
154257,139759,201886,203632,5840,0,10:50:23.500756
154360,139755,201888,203631,5850,0,10:50:23.540000
154310,139765,201897,203634,5860,0,10:50:23.579977
154324,139756,201827,203637,5870,0,10:50:23.620341
154330,139761,201930,203635,5880,0,10:50:23.660815
154327,139751,201877,203631,5890,0,10:50:23.700096
154339,139768,201887,203634,5900,0,10:50:23.740386
154336,139760,201887,203632,5910,0,10:50:23.779818
154326,139755,201886,203634,5920,0,10:50:23.819995
154336,139767,201885,203633,5930,0,10:50:23.860974
154318,139750,201883,203630,5940,0,10:50:23.900815
154326,139754,201885,203625,5950,0,10:50:23.939953
154329,139754,201884,203633,5960,0,10:50:23.980851
154344,139762,201881,203626,5970,0,10:50:24.020042
154321,139753,201878,203625,5980,0,10:50:24.060081
154334,139760,201885,203632,5990,0,10:50:24.099890
154350,139760,201883,203631,6000,0,10:50:24.140072
154329,139762,201876,203624,6010,0,10:50:24.180467
154321,139750,201882,203624,6020,0,10:50:24.220539
154327,139761,201911,203622,6030,0,10:50:24.260255
154321,139752,201881,203632,6040,0,10:50:24.301846
154323,139759,201879,203628,6050,0,10:50:24.339801
154322,139756,201883,203631,6060,0,10:50:24.380101
154323,139758,201886,203639,6070,0,10:50:24.420785
154323,139757,201885,203634,6080,0,10:50:24.460255
154322,139753,201882,203631,6090,0,10:50:24.499963
154318,139750,201881,203633,6100,0,10:50:24.540252
154318,139745,201880,203628,6110,0,10:50:24.580416
154328,139741,201884,203629,6120,0,10:50:24.619844
154318,139749,201881,203620,6130,0,10:50:24.660053
154339,139753,201881,203627,6140,0,10:50:24.699744
154311,139750,201895,203622,6150,0,10:50:24.740039
154328,139752,201853,203610,6160,0,10:50:24.779766
154326,139751,201895,203620,6170,0,10:50:24.820473
154330,139761,201856,203616,6180,0,10:50:24.860718
154323,139748,201877,203619,6190,0,10:50:24.900238
154325,139751,201885,203620,6200,0,10:50:24.939769
154322,139746,201875,203616,6210,0,10:50:24.980056
154312,139735,201876,203615,6220,0,10:50:25.020778
154323,139745,201881,203618,6230,0,10:50:25.059493
154320,139744,201878,203618,6240,0,10:50:25.100871
154322,139745,201879,203623,6250,0,10:50:25.140045
154321,139736,201882,203620,6260,0,10:50:25.179940
154307,139756,201883,203622,6270,0,10:50:25.220744
154332,139741,201870,203610,6280,0,10:50:25.260758
154291,139735,201889,203612,6290,0,10:50:25.300054
154309,139733,201831,203615,6300,0,10:50:25.339953
154313,139737,201926,203618,6310,0,10:50:25.379724
154317,139743,201851,203609,6320,0,10:50:25.420035
154325,139748,201877,203615,6330,0,10:50:25.459815
154307,139729,201871,203617,6340,0,10:50:25.500076
154312,139739,201878,203622,6350,0,10:50:25.539763
154311,139739,201875,203615,6360,0,10:50:25.580034
154319,139740,201876,203615,6370,0,10:50:25.619846
154306,139730,201880,203624,6380,0,10:50:25.660288
154326,139745,201881,203618,6390,0,10:50:25.700228
154335,139745,201874,203612,6400,0,10:50:25.739853
154298,139735,201875,203609,6410,0,10:50:25.780147
154323,139734,201874,203611,6420,0,10:50:25.820039
154306,139745,201893,203617,6430,0,10:50:25.860565
154316,139739,201861,203621,6440,0,10:50:25.900438
154319,139738,201913,203611,6450,0,10:50:25.940077
154319,139744,201853,203612,6460,0,10:50:25.979922
154315,139738,201875,203606,6470,0,10:50:26.020037
154307,139726,201878,203617,6480,0,10:50:26.060057
154304,139731,201874,203612,6490,0,10:50:26.099839
154311,139735,201875,203610,6500,0,10:50:26.140060
154310,139732,201874,203609,6510,0,10:50:26.180066
154317,139736,201871,203608,6520,0,10:50:26.219838
154314,139739,201872,203608,6530,0,10:50:26.260731
154319,139738,201872,203604,6540,0,10:50:26.299920
154301,139740,201872,203606,6550,0,10:50:26.340077
154302,139749,201876,203621,6560,0,10:50:26.380749
154352,139740,201880,203609,6570,0,10:50:26.419905
154308,139732,201840,203614,6580,0,10:50:26.460036
154316,139741,201850,203612,6590,0,10:50:26.499774
154315,139742,201892,203611,6600,0,10:50:26.539671
154315,139744,201864,203611,6610,0,10:50:26.580025
154314,139738,201872,203611,6620,0,10:50:26.620000
154306,139736,201873,203612,6630,0,10:50:26.659724
154337,139739,201871,203602,6640,0,10:50:26.699835
154319,139735,201872,203612,6650,0,10:50:26.740459
154308,139732,201875,203611,6660,0,10:50:26.780015
154314,139735,201871,203604,6670,0,10:50:26.820797
154290,139730,201894,203604,6680,0,10:50:26.860376
154340,139740,201869,203608,6690,0,10:50:26.899641
154290,139728,201868,203607,6700,0,10:50:26.939774
154331,139740,201848,203603,6710,0,10:50:26.981028
154296,139739,201867,203599,6720,0,10:50:27.020066
154308,139730,201840,203606,6730,0,10:50:27.060645
154307,139731,201920,203607,6740,0,10:50:27.100051
154311,139733,201857,203616,6750,0,10:50:27.139746
154310,139736,201873,203609,6760,0,10:50:27.179789
154308,139730,201874,203600,6770,0,10:50:27.219755
154310,139740,201873,203616,6780,0,10:50:27.259937
154325,139739,201872,203617,6790,0,10:50:27.300025
154298,139739,201863,203610,6800,0,10:50:27.340005
154310,139739,201869,203615,6810,0,10:50:27.379902
154312,139743,201866,203611,6820,0,10:50:27.419798
154314,139736,201822,203617,6830,0,10:50:27.460676
154282,139755,201870,203617,6840,0,10:50:27.499958
154315,139742,201865,203610,6850,0,10:50:27.539852
154302,139743,201882,203616,6860,0,10:50:27.580741
154311,139741,201859,203608,6870,0,10:50:27.620635
154312,139743,201910,203612,6880,0,10:50:27.663520
154311,139745,201830,203614,6890,0,10:50:27.702924
154308,139738,201863,203609,6900,0,10:50:27.753787
154300,139734,201864,203612,6910,0,10:50:27.807643
154309,139747,201865,203612,6920,0,10:50:27.835569
154305,139740,201865,203615,6930,0,10:50:27.860640
154314,139752,201858,203605,6940,0,10:50:27.901531
154301,139736,201855,203602,6950,0,10:50:27.941445
154310,139746,201858,203612,6960,0,10:50:27.980367
154322,139736,201864,203613,6970,0,10:50:28.021258
154307,139750,201858,203613,6980,0,10:50:28.061001
154311,139732,201867,203612,6990,0,10:50:28.099414
154306,139739,201860,203613,7000,0,10:50:28.140382
154302,139734,201839,203605,7010,0,10:50:28.180292
154299,139730,201823,203613,7020,0,10:50:28.220030
154302,139733,201864,203613,7030,0,10:50:28.259735
154311,139743,201851,203599,7040,0,10:50:28.299837
154307,139739,201859,203607,7050,0,10:50:28.339882
154298,139734,201862,203614,7060,0,10:50:28.379985
154300,139735,201855,203601,7070,0,10:50:28.419723
154296,139730,201852,203601,7080,0,10:50:28.459616
154311,139743,201854,203609,7090,0,10:50:28.500419
154314,139736,201857,203610,7100,0,10:50:28.540312
154298,139734,201864,203611,7110,0,10:50:28.580689
154261,139728,201854,203610,7120,0,10:50:28.619568
154306,139733,201859,203609,7130,0,10:50:28.660879
154334,139728,201845,203600,7140,0,10:50:28.700098
154272,139737,201856,203599,7150,0,10:50:28.740365
154301,139738,201878,203608,7160,0,10:50:28.780335
154301,139736,201870,203613,7170,0,10:50:28.820477
154297,139732,201844,203607,7180,0,10:50:28.860299
154308,139744,201857,203607,7190,0,10:50:28.899891
154303,139735,201855,203606,7200,0,10:50:28.940197
154300,139738,201852,203604,7210,0,10:50:28.980370
154313,139738,201859,203609,7220,0,10:50:29.020264
154292,139731,201856,203600,7230,0,10:50:29.060574
154305,139739,201861,203609,7240,0,10:50:29.100468
154289,139740,201860,203603,7250,0,10:50:29.140361
154307,139737,201849,203604,7260,0,10:50:29.182938
154328,139742,201857,203608,7270,0,10:50:29.220835
154311,139743,201857,203604,7280,0,10:50:29.265715
154280,139730,201861,203609,7290,0,10:50:29.308600
154304,139736,201867,203600,7300,0,10:50:29.412323
154301,139735,201824,203605,7310,0,10:50:29.413320
154302,139732,201842,203601,7320,0,10:50:29.421299
154301,139732,201858,203605,7330,0,10:50:29.465181
154298,139734,201855,203604,7340,0,10:50:29.502083
154295,139730,201853,203603,7350,0,10:50:29.540401
154303,139737,201847,203601,7360,0,10:50:29.580888
154292,139731,201847,203604,7370,0,10:50:29.619784
154302,139742,201850,203602,7380,0,10:50:29.660674
154297,139730,201840,203605,7390,0,10:50:29.710429
154298,139729,201823,203594,7400,0,10:50:29.744338
154310,139729,201845,203597,7410,0,10:50:29.779671
154274,139730,201843,203598,7420,0,10:50:29.819564
154276,139722,201847,203593,7430,0,10:50:29.860455
154297,139732,201868,203606,7440,0,10:50:29.900348
154292,139733,201824,203602,7450,0,10:50:29.940242
154298,139738,201845,203589,7460,0,10:50:29.980135
154279,139717,201847,203594,7470,0,10:50:30.022023
154286,139723,201843,203600,7480,0,10:50:30.064910
154292,139722,201844,203594,7490,0,10:50:30.100812
154290,139724,201851,203596,7500,0,10:50:30.140706
154283,139733,201845,203592,7510,0,10:50:30.192567
154293,139730,201851,203604,7520,0,10:50:30.220493
154288,139723,201847,203601,7530,0,10:50:30.260710
154287,139714,201843,203595,7540,0,10:50:30.323542
154310,139724,201846,203595,7550,0,10:50:30.340497
154252,139720,201847,203596,7560,0,10:50:30.385377
154293,139729,201873,203596,7570,0,10:50:30.420283
154294,139731,201849,203602,7580,0,10:50:30.460213
154290,139724,201807,203593,7590,0,10:50:30.501109
154303,139725,201870,203600,7600,0,10:50:30.540005
154288,139722,201848,203601,7610,0,10:50:30.580896
154300,139735,201851,203596,7620,0,10:50:30.619909
154301,139732,201848,203598,7630,0,10:50:30.660608
154287,139725,201851,203596,7640,0,10:50:30.699502
154296,139733,201846,203594,7650,0,10:50:30.739807
154286,139720,201843,203591,7660,0,10:50:30.779751
154294,139729,201845,203596,7670,0,10:50:30.820287
154294,139723,201845,203596,7680,0,10:50:30.860103
154329,139727,201848,203597,7690,0,10:50:30.900088
154242,139729,201851,203590,7700,0,10:50:30.940430
154315,139732,201854,203595,7710,0,10:50:30.979786
154272,139723,201842,203599,7720,0,10:50:31.020461
154290,139727,201768,203591,7730,0,10:50:31.060557
154289,139728,201887,203596,7740,0,10:50:31.100053
154292,139725,201831,203592,7750,0,10:50:31.140475
154293,139724,201844,203597,7760,0,10:50:31.179830
154299,139736,201839,203585,7770,0,10:50:31.219861
154290,139726,201843,203597,7780,0,10:50:31.260858
154283,139720,201844,203590,7790,0,10:50:31.300580
154296,139727,201841,203593,7800,0,10:50:31.340805
154298,139731,201848,203600,7810,0,10:50:31.380659
154306,139725,201846,203593,7820,0,10:50:31.420643
154286,139721,201849,203590,7830,0,10:50:31.460343
154241,139724,201847,203595,7840,0,10:50:31.499835
154330,139725,201870,203599,7850,0,10:50:31.540380
154282,139729,201833,203589,7860,0,10:50:31.580448
154288,139727,201845,203596,7870,0,10:50:31.620711
154289,139724,201897,203598,7880,0,10:50:31.660113
154294,139728,201792,203585,7890,0,10:50:31.700614
154288,139729,201842,203595,7900,0,10:50:31.739510
154285,139722,201837,203590,7910,0,10:50:31.780399
154289,139724,201841,203596,7920,0,10:50:31.820615
154285,139719,201844,203599,7930,0,10:50:31.859509
154308,139723,201839,203594,7940,0,10:50:31.900402
154280,139724,201842,203596,7950,0,10:50:31.939744
154282,139718,201846,203597,7960,0,10:50:31.980056
154270,139727,201862,203599,7970,0,10:50:32.019833
154304,139718,201823,203593,7980,0,10:50:32.060546
154294,139721,201838,203589,7990,0,10:50:32.099976
154271,139720,201822,203591,8000,0,10:50:32.140029
154289,139726,201874,203597,8010,0,10:50:32.180636
154289,139724,201780,203583,8020,0,10:50:32.220419
154280,139721,201822,203588,8030,0,10:50:32.260312
154289,139726,201841,203592,8040,0,10:50:32.300929
154287,139724,201841,203594,8050,0,10:50:32.341819
154287,139725,201837,203588,8060,0,10:50:32.381712
154290,139724,201843,203601,8070,0,10:50:32.420602
154283,139723,201832,203589,8080,0,10:50:32.459927
154263,139722,201837,203591,8090,0,10:50:32.499827
154278,139719,201839,203591,8100,0,10:50:32.539761
154283,139720,201836,203587,8110,0,10:50:32.579843
154304,139721,201801,203588,8120,0,10:50:32.619942
154248,139721,201836,203585,8130,0,10:50:32.660473
154292,139729,201843,203594,8140,0,10:50:32.700142
154278,139713,201852,203590,8150,0,10:50:32.740229
154275,139714,201765,203589,8160,0,10:50:32.780311
154280,139709,201892,203590,8170,0,10:50:32.820625
154272,139709,201827,203574,8180,0,10:50:32.860561
154284,139716,201829,203573,8190,0,10:50:32.900377
154279,139712,201834,203574,8200,0,10:50:32.940537
154275,139709,201828,203565,8210,0,10:50:32.980043
154286,139713,201831,203573,8220,0,10:50:33.020652
154291,139726,201832,203575,8230,0,10:50:33.059819
154287,139716,201832,203576,8240,0,10:50:33.100083
154297,139715,201831,203577,8250,0,10:50:33.140360
154256,139703,201834,203584,8260,0,10:50:33.180817
154313,139715,201853,203577,8270,0,10:50:33.220097
154278,139719,201833,203572,8280,0,10:50:33.260162
154295,139724,201804,203571,8290,0,10:50:33.299911
154285,139715,201886,203578,8300,0,10:50:33.340359
154279,139710,201793,203574,8310,0,10:50:33.380206
154289,139718,201830,203571,8320,0,10:50:33.419827
154290,139714,201838,203578,8330,0,10:50:33.460583
154303,139726,201838,203572,8340,0,10:50:33.500324
154295,139720,201831,203570,8350,0,10:50:33.539688
154285,139710,201835,203575,8360,0,10:50:33.580455
154287,139717,201826,203562,8370,0,10:50:33.619871
154306,139712,201829,203574,8380,0,10:50:33.660502
154282,139708,201834,203572,8390,0,10:50:33.699866
154292,139714,201837,203576,8400,0,10:50:33.739644
154315,139720,201871,203576,8410,0,10:50:33.779861
154276,139712,201818,203563,8420,0,10:50:33.821166
154272,139701,201868,203579,8430,0,10:50:33.860239
154290,139711,201836,203576,8440,0,10:50:33.900517
154279,139706,201826,203575,8450,0,10:50:33.940625
154282,139708,201830,203570,8460,0,10:50:33.980367
154278,139706,201828,203571,8470,0,10:50:34.020476
154279,139710,201825,203565,8480,0,10:50:34.060292
154277,139710,201834,203572,8490,0,10:50:34.099993
154283,139706,201831,203569,8500,0,10:50:34.139677
154279,139704,201834,203570,8510,0,10:50:34.180636
154280,139709,201834,203576,8520,0,10:50:34.220833
154260,139697,201860,203575,8530,0,10:50:34.259752
154314,139712,201828,203573,8540,0,10:50:34.300055
154269,139716,201837,203573,8550,0,10:50:34.340773
154285,139708,201807,203567,8560,0,10:50:34.380837
154279,139705,201849,203571,8570,0,10:50:34.419742
154279,139707,201795,203573,8580,0,10:50:34.460330
154290,139719,201872,203573,8590,0,10:50:34.500440
154283,139707,201826,203564,8600,0,10:50:34.540675
154278,139708,201828,203574,8610,0,10:50:34.579946
154283,139712,201826,203571,8620,0,10:50:34.620347
154271,139705,201827,203570,8630,0,10:50:34.660727
154254,139706,201862,203575,8640,0,10:50:34.700838
154270,139707,201829,203574,8650,0,10:50:34.740859
154277,139707,201828,203573,8660,0,10:50:34.780800
154275,139707,201829,203575,8670,0,10:50:34.820847
154283,139701,201767,203571,8680,0,10:50:34.859480
154247,139710,201828,203578,8690,0,10:50:34.899831
154304,139707,201834,203579,8700,0,10:50:34.940678
154253,139711,201848,203571,8710,0,10:50:34.980157
154281,139714,201827,203570,8720,0,10:50:35.020270
154279,139705,201873,203575,8730,0,10:50:35.060110
154270,139701,201801,203575,8740,0,10:50:35.099918
154278,139713,201824,203566,8750,0,10:50:35.139940
154274,139704,201826,203574,8760,0,10:50:35.180476
154272,139701,201825,203573,8770,0,10:50:35.220483
154266,139704,201833,203576,8780,0,10:50:35.260116
154265,139703,201828,203573,8790,0,10:50:35.300403
154283,139715,201820,203566,8800,0,10:50:35.339936
154275,139699,201818,203565,8810,0,10:50:35.380531
154265,139705,201835,203575,8820,0,10:50:35.420219
154235,139705,201816,203571,8830,0,10:50:35.460515
154249,139698,201846,203570,8840,0,10:50:35.500414
154306,139713,201811,203562,8850,0,10:50:35.539868
154263,139700,201839,203568,8860,0,10:50:35.580479
154265,139700,201821,203572,8870,0,10:50:35.620953
154272,139705,201873,203570,8880,0,10:50:35.660382
154268,139704,201811,203574,8890,0,10:50:35.700736
154278,139716,201826,203573,8900,0,10:50:35.740610
154272,139710,201822,203572,8910,0,10:50:35.779851
154266,139704,201814,203563,8920,0,10:50:35.819694
154282,139702,201825,203575,8930,0,10:50:35.859584
154264,139709,201820,203566,8940,0,10:50:35.900664
154275,139708,201822,203567,8950,0,10:50:35.939876
154257,139698,201829,203569,8960,0,10:50:35.980383
154275,139704,201797,203566,8970,0,10:50:36.020516
154277,139703,201819,203568,8980,0,10:50:36.059556
154307,139699,201827,203573,8990,0,10:50:36.100525
154251,139703,201826,203575,9000,0,10:50:36.139545
154283,139715,201826,203572,9010,0,10:50:36.180395
154268,139700,201814,203571,9020,0,10:50:36.219806
154260,139698,201798,203565,9030,0,10:50:36.260543
154270,139705,201818,203567,9040,0,10:50:36.300437
154260,139697,201822,203572,9050,0,10:50:36.340728
154270,139707,201818,203563,9060,0,10:50:36.380401
154264,139702,201816,203566,9070,0,10:50:36.420241
154241,139703,201814,203562,9080,0,10:50:36.460268
154271,139702,201822,203571,9090,0,10:50:36.500543
154270,139704,201813,203558,9100,0,10:50:36.539897
154279,139710,201809,203560,9110,0,10:50:36.580706
154281,139706,201816,203562,9120,0,10:50:36.620509
154233,139707,201823,203563,9130,0,10:50:36.660685
154259,139704,201832,203564,9140,0,10:50:36.700757
154269,139704,201804,203557,9150,0,10:50:36.740804
154262,139697,201777,203562,9160,0,10:50:36.780082
154264,139701,201808,203555,9170,0,10:50:36.820606
154269,139707,201815,203565,9180,0,10:50:36.860673
154276,139714,201818,203566,9190,0,10:50:36.900527
154271,139707,201813,203558,9200,0,10:50:36.940958
154266,139701,201811,203556,9210,0,10:50:36.980077
154272,139700,201819,203567,9220,0,10:50:37.020378
154273,139703,201813,203557,9230,0,10:50:37.060663
154274,139697,201814,203551,9240,0,10:50:37.099985
154262,139698,201819,203558,9250,0,10:50:37.140462
154266,139708,201813,203563,9260,0,10:50:37.180402
154273,139716,201818,203554,9270,0,10:50:37.220502
154283,139709,201810,203559,9280,0,10:50:37.259611
154259,139695,201846,203554,9290,0,10:50:37.300605
154271,139704,201809,203555,9300,0,10:50:37.339765
154263,139699,201840,203562,9310,0,10:50:37.380520
154257,139692,201805,203558,9320,0,10:50:37.420415
154266,139699,201816,203559,9330,0,10:50:37.460385
154264,139695,201810,203558,9340,0,10:50:37.499625
154267,139698,201812,203555,9350,0,10:50:37.539517
154281,139697,201814,203559,9360,0,10:50:37.579963
154249,139682,201808,203551,9370,0,10:50:37.620253
154266,139698,201814,203560,9380,0,10:50:37.660513
154254,139698,201804,203557,9390,0,10:50:37.700505
154265,139697,201806,203562,9400,0,10:50:37.740038
154286,139696,201810,203559,9410,0,10:50:37.780027
154269,139696,201812,203561,9420,0,10:50:37.820386
154243,139689,201819,203558,9430,0,10:50:37.859878
154261,139695,201833,203562,9440,0,10:50:37.899628
154255,139689,201817,203560,9450,0,10:50:37.940519
154259,139692,201822,203561,9460,0,10:50:37.979498
154260,139695,201812,203562,9470,0,10:50:38.021124
154264,139699,201810,203550,9480,0,10:50:38.060024
154263,139695,201812,203555,9490,0,10:50:38.099568
154260,139693,201809,203547,9500,0,10:50:38.141457
154241,139694,201812,203562,9510,0,10:50:38.179683
154251,139690,201815,203560,9520,0,10:50:38.220558
154265,139696,201810,203554,9530,0,10:50:38.259532
154268,139692,201818,203562,9540,0,10:50:38.301419
154287,139694,201807,203553,9550,0,10:50:38.340017
154242,139690,201824,203561,9560,0,10:50:38.380531
154260,139702,201841,203556,9570,0,10:50:38.419423
154255,139693,201804,203556,9580,0,10:50:38.459700
154260,139698,201762,203558,9590,0,10:50:38.500367
154248,139689,201818,203559,9600,0,10:50:38.539837
154249,139685,201807,203558,9610,0,10:50:38.580170
154257,139692,201808,203555,9620,0,10:50:38.610434
154255,139691,201809,203554,9630,0,10:50:38.660415
154261,139691,201808,203551,9640,0,10:50:38.699901
154262,139697,201809,203555,9650,0,10:50:38.739677
154259,139693,201805,203556,9660,0,10:50:38.769604
154258,139693,201810,203552,9670,0,10:50:38.811483
154283,139685,201801,203548,9680,0,10:50:38.860351
154252,139695,201807,203554,9690,0,10:50:38.889944
154256,139689,201807,203554,9700,0,10:50:38.930568
154259,139685,201805,203551,9710,0,10:50:38.969836
154250,139696,201792,203551,9720,0,10:50:39.010626
154249,139684,201827,203549,9730,0,10:50:39.050168
154247,139682,201827,203554,9740,0,10:50:39.090352
154250,139687,201790,203553,9750,0,10:50:39.130646
154246,139683,201809,203554,9760,0,10:50:39.169927
154256,139693,201808,203558,9770,0,10:50:39.226269
154253,139688,201809,203551,9780,0,10:50:39.254706
154257,139688,201806,203552,9790,0,10:50:39.290635
154256,139694,201808,203557,9800,0,10:50:39.335512
154252,139692,201806,203552,9810,0,10:50:39.370422
154237,139674,201810,203559,9820,0,10:50:39.410197
154245,139688,201809,203547,9830,0,10:50:39.450380
154253,139687,201808,203552,9840,0,10:50:39.490326
154284,139694,201805,203553,9850,0,10:50:39.529480
154232,139689,201809,203554,9860,0,10:50:39.569844
154244,139681,201828,203557,9870,0,10:50:39.611005
154258,139694,201822,203553,9880,0,10:50:39.650309
154249,139678,201797,203552,9890,0,10:50:39.690652
154250,139689,201806,203563,9900,0,10:50:39.730579
154251,139687,201810,203562,9910,0,10:50:39.769980
154251,139687,201810,203557,9920,0,10:50:39.809931
154251,139686,201808,203554,9930,0,10:50:39.850512
154249,139684,201809,203552,9940,0,10:50:39.890270
154249,139688,201810,203552,9950,0,10:50:39.930016
154251,139684,201800,203548,9960,0,10:50:39.970490
154260,139691,201802,203556,9970,0,10:50:40.011016
154281,139679,201803,203554,9980,0,10:50:40.050016
154220,139680,201807,203554,9990,0,10:50:40.090051
154263,139681,201810,203552,10000,0,10:50:40.130550
154244,139684,201798,203555,10010,0,10:50:40.169814
154250,139691,201771,203552,10020,0,10:50:40.209782
154248,139684,201838,203553,10030,0,10:50:40.249777
154243,139680,201798,203554,10040,0,10:50:40.290732
154255,139687,201803,203552,10050,0,10:50:40.330517
154248,139686,201802,203548,10060,0,10:50:40.369960
154249,139686,201801,203554,10070,0,10:50:40.409854
154246,139684,201799,203550,10080,0,10:50:40.450781
154243,139676,201803,203549,10090,0,10:50:40.490792
154243,139677,201809,203558,10100,0,10:50:40.529645
154253,139689,201803,203551,10110,0,10:50:40.570827
154245,139678,201799,203545,10120,0,10:50:40.609719
154197,139681,201801,203542,10130,0,10:50:40.651484
154287,139684,201803,203552,10140,0,10:50:40.690469
154246,139692,201797,203555,10150,0,10:50:40.732083
154246,139681,201774,203549,10160,0,10:50:40.769757
154248,139682,201839,203553,10170,0,10:50:40.810093
154252,139688,201787,203553,10180,0,10:50:40.849939
154251,139688,201803,203554,10190,0,10:50:40.889832
154245,139682,201806,203555,10200,0,10:50:40.930391
154261,139696,201807,203558,10210,0,10:50:40.970032
154254,139690,201804,203548,10220,0,10:50:41.009733
154249,139685,201800,203549,10230,0,10:50:41.050066
154246,139686,201803,203545,10240,0,10:50:41.090316
154244,139679,201805,203549,10250,0,10:50:41.130269
154266,139681,201800,203543,10260,0,10:50:41.169869
154216,139681,201798,203540,10270,0,10:50:41.209813
154293,139689,201797,203547,10280,0,10:50:41.250477
154219,139681,201796,203552,10290,0,10:50:41.290996
154241,139679,201783,203545,10300,0,10:50:41.329769
154238,139676,201843,203555,10310,0,10:50:41.370304
154244,139673,201786,203544,10320,0,10:50:41.410320
154257,139695,201802,203551,10330,0,10:50:41.450510
154255,139690,201799,203549,10340,0,10:50:41.490759
154244,139680,201803,203547,10350,0,10:50:41.530485
154255,139691,201799,203545,10360,0,10:50:41.569982
154243,139681,201806,203552,10370,0,10:50:41.609853
154253,139688,201798,203545,10380,0,10:50:41.651012
154238,139669,201802,203551,10390,0,10:50:41.689935
154240,139676,201797,203539,10400,0,10:50:41.730318
154259,139681,201800,203549,10410,0,10:50:41.769635
154279,139684,201798,203545,10420,0,10:50:41.809809
154220,139678,201804,203542,10430,0,10:50:41.849892
154241,139674,201818,203553,10440,0,10:50:41.890510
154243,139678,201801,203549,10450,0,10:50:41.932079
154248,139679,201792,203548,10460,0,10:50:41.970665
154255,139692,201800,203540,10470,0,10:50:42.009845
154244,139674,201806,203544,10480,0,10:50:42.050960
154257,139687,201802,203548,10490,0,10:50:42.089980
154251,139681,201803,203546,10500,0,10:50:42.130569
154251,139686,201803,203552,10510,0,10:50:42.170016
154248,139681,201797,203539,10520,0,10:50:42.210440
154246,139678,201804,203552,10530,0,10:50:42.250705
154242,139678,201805,203548,10540,0,10:50:42.290085
154281,139682,201797,203542,10550,0,10:50:42.330603
154232,139680,201800,203546,10560,0,10:50:42.369802
154238,139678,201799,203543,10570,0,10:50:42.409619
154235,139680,201824,203550,10580,0,10:50:42.450674
154239,139676,201732,203544,10590,0,10:50:42.489862
154236,139675,201834,203544,10600,0,10:50:42.529788
154241,139679,201775,203545,10610,0,10:50:42.569921
154243,139684,201791,203538,10620,0,10:50:42.610401
154240,139676,201797,203551,10630,0,10:50:42.649746
154242,139683,201797,203546,10640,0,10:50:42.689919
154258,139684,201796,203542,10650,0,10:50:42.729822
154252,139684,201800,203548,10660,0,10:50:42.769921
154249,139687,201799,203547,10670,0,10:50:42.810766
154242,139678,201795,203544,10680,0,10:50:42.850071
154253,139676,201794,203545,10690,0,10:50:42.889846
154181,139684,201797,203547,10700,0,10:50:42.930884
154279,139678,201801,203552,10710,0,10:50:42.969616
154213,139677,201816,203543,10720,0,10:50:43.009725
154243,139681,201762,203547,10730,0,10:50:43.050545
154249,139689,201861,203549,10740,0,10:50:43.091409
154236,139673,201781,203544,10750,0,10:50:43.129752
154246,139679,201798,203544,10760,0,10:50:43.171087
154255,139689,201792,203542,10770,0,10:50:43.210518
154238,139677,201790,203538,10780,0,10:50:43.249998
154242,139686,201792,203546,10790,0,10:50:43.290374
154239,139678,201796,203546,10800,0,10:50:43.330366
154242,139681,201794,203542,10810,0,10:50:43.370519
154269,139681,201796,203549,10820,0,10:50:43.410475
154233,139680,201797,203551,10830,0,10:50:43.450736
154324,139692,201789,203536,10840,0,10:50:43.490851
154207,139670,201788,203537,10850,0,10:50:43.529984
154233,139671,201776,203545,10860,0,10:50:43.569683
154242,139678,201818,203544,10870,0,10:50:43.609794
154244,139683,201778,203540,10880,0,10:50:43.650823
154243,139680,201791,203547,10890,0,10:50:43.690379
154239,139683,201786,203537,10900,0,10:50:43.730415
154241,139680,201788,203540,10910,0,10:50:43.770545
154245,139682,201786,203536,10920,0,10:50:43.810501
154245,139683,201791,203543,10930,0,10:50:43.850349
154239,139677,201789,203540,10940,0,10:50:43.889814
154231,139676,201786,203533,10950,0,10:50:43.930032
154242,139681,201788,203538,10960,0,10:50:43.970507
154234,139687,201788,203536,10970,0,10:50:44.010630
154243,139685,201790,203543,10980,0,10:50:44.049916
154215,139675,201775,203533,10990,0,10:50:44.089681
154242,139683,201811,203532,11000,0,10:50:44.129591
154239,139675,201696,203531,11010,0,10:50:44.170081
154235,139671,201782,203538,11020,0,10:50:44.209806
154234,139671,201786,203543,11030,0,10:50:44.249866
154247,139689,201786,203539,11040,0,10:50:44.290744
154237,139680,201787,203531,11050,0,10:50:44.329976
154238,139679,201789,203542,11060,0,10:50:44.370055
154239,139675,201787,203537,11070,0,10:50:44.410045
154229,139680,201787,203541,11080,0,10:50:44.449760
154242,139681,201787,203532,11090,0,10:50:44.489658
154237,139675,201790,203539,11100,0,10:50:44.529530
154242,139677,201771,203543,11110,0,10:50:44.569931
154214,139681,201786,203538,11120,0,10:50:44.610264
154268,139685,201785,203530,11130,0,10:50:44.650018
154225,139679,201805,203542,11140,0,10:50:44.690751
154239,139682,201747,203539,11150,0,10:50:44.729929
154241,139682,201860,203539,11160,0,10:50:44.770377
154242,139679,201761,203534,11170,0,10:50:44.809558
154233,139673,201779,203537,11180,0,10:50:44.850450
154241,139678,201784,203537,11190,0,10:50:44.889822
154238,139672,201787,203537,11200,0,10:50:44.935304
154244,139690,201788,203543,11210,0,10:50:44.972211
154237,139674,201784,203531,11220,0,10:50:45.010110
154230,139669,201786,203541,11230,0,10:50:45.098227
154241,139678,201781,203532,11240,0,10:50:45.099225
154273,139678,201783,203529,11250,0,10:50:45.129707
154219,139670,201797,203535,11260,0,10:50:45.170294
154260,139683,201798,203536,11270,0,10:50:45.210187
154216,139675,201780,203538,11280,0,10:50:45.249722
154224,139668,201754,203538,11290,0,10:50:45.290872
154236,139675,201773,203530,11300,0,10:50:45.330135
154233,139668,201787,203533,11310,0,10:50:45.370323
154230,139666,201783,203530,11320,0,10:50:45.410147
154232,139668,201782,203531,11330,0,10:50:45.450630
154234,139671,201783,203540,11340,0,10:50:45.490478
154234,139674,201782,203533,11350,0,10:50:45.529902
154238,139666,201778,203532,11360,0,10:50:45.569752
154239,139678,201780,203528,11370,0,10:50:45.610262
154251,139675,201779,203528,11380,0,10:50:45.650582
154235,139680,201779,203534,11390,0,10:50:45.689573
154216,139679,201775,203525,11400,0,10:50:45.730305
154229,139672,201782,203537,11410,0,10:50:45.770612
154229,139672,201772,203536,11420,0,10:50:45.810630
154233,139665,201812,203532,11430,0,10:50:45.850459
154235,139673,201774,203533,11440,0,10:50:45.890039
154234,139670,201794,203537,11450,0,10:50:45.929727
154231,139676,201777,203531,11460,0,10:50:45.969700
154228,139663,201784,203534,11470,0,10:50:46.010170
154238,139681,201786,203537,11480,0,10:50:46.050788
154233,139673,201782,203532,11490,0,10:50:46.090753
154243,139667,201784,203533,11500,0,10:50:46.130653
154225,139675,201781,203538,11510,0,10:50:46.169825
154229,139675,201782,203536,11520,0,10:50:46.210969
154220,139674,201799,203523,11530,0,10:50:46.250883
154250,139667,201769,203532,11540,0,10:50:46.289903
154223,139667,201787,203539,11550,0,10:50:46.330088
154238,139669,201768,203533,11560,0,10:50:46.370215
154215,139664,201803,203535,11570,0,10:50:46.410741
154222,139661,201712,203532,11580,0,10:50:46.449922
154222,139659,201817,203536,11590,0,10:50:46.490410
154226,139671,201771,203538,11600,0,10:50:46.529859
154219,139661,201784,203534,11610,0,10:50:46.569503
154230,139672,201788,203539,11620,0,10:50:46.610414
154220,139659,201781,203534,11630,0,10:50:46.650703
154212,139666,201799,203531,11640,0,10:50:46.689735
154213,139662,201779,203539,11650,0,10:50:46.730595
154231,139679,201779,203530,11660,0,10:50:46.770479
154210,139674,201777,203534,11670,0,10:50:46.810208
154238,139680,201761,203541,11680,0,10:50:46.850420
154222,139672,201783,203536,11690,0,10:50:46.890630
154255,139673,201777,203537,11700,0,10:50:46.930253
154207,139677,201783,203525,11710,0,10:50:46.970488
154236,139673,201794,203536,11720,0,10:50:47.010628
154229,139668,201804,203534,11730,0,10:50:47.050375
154227,139666,201770,203526,11740,0,10:50:47.091265
154231,139674,201783,203531,11750,0,10:50:47.130162
154224,139662,201781,203530,11760,0,10:50:47.170055
154222,139664,201776,203522,11770,0,10:50:47.209948
154229,139669,201782,203534,11780,0,10:50:47.250839
154208,139665,201782,203528,11790,0,10:50:47.290279
154220,139661,201780,203528,11800,0,10:50:47.330513
154235,139668,201775,203525,11810,0,10:50:47.369728
154243,139669,201777,203532,11820,0,10:50:47.409674
154235,139667,201778,203526,11830,0,10:50:47.450832
154212,139658,201796,203527,11840,0,10:50:47.489818
154244,139669,201776,203529,11850,0,10:50:47.530706
154237,139677,201772,203528,11860,0,10:50:47.570314
154239,139677,201757,203526,11870,0,10:50:47.610036
154234,139674,201781,203526,11880,0,10:50:47.650205
154227,139664,201774,203527,11890,0,10:50:47.689745
154228,139669,201775,203527,11900,0,10:50:47.729902
154225,139672,201776,203528,11910,0,10:50:47.769519
154234,139669,201774,203523,11920,0,10:50:47.809574
154220,139659,201779,203535,11930,0,10:50:47.850339
154231,139667,201777,203531,11940,0,10:50:47.889672
154253,139669,201778,203526,11950,0,10:50:47.930790
154226,139669,201782,203528,11960,0,10:50:47.970078
154229,139663,201774,203525,11970,0,10:50:48.009681
154197,139660,201779,203536,11980,0,10:50:48.050630
154237,139664,201762,203535,11990,0,10:50:48.090828
154209,139659,201797,203531,12000,0,10:50:48.130060
154222,139662,201765,203532,12010,0,10:50:48.170018
154224,139664,201799,203522,12020,0,10:50:48.209664
154232,139672,201763,203536,12030,0,10:50:48.250396
154222,139665,201775,203524,12040,0,10:50:48.289972
154227,139668,201776,203524,12050,0,10:50:48.329676
154219,139663,201781,203527,12060,0,10:50:48.370612
154264,139661,201776,203522,12070,0,10:50:48.410825
154226,139673,201778,203527,12080,0,10:50:48.449772
154225,139672,201776,203532,12090,0,10:50:48.490643
154212,139659,201778,203520,12100,0,10:50:48.529805
154227,139669,201765,203523,12110,0,10:50:48.570808
154190,139660,201776,203522,12120,0,10:50:48.610152
154236,139667,201781,203521,12130,0,10:50:48.650296
154211,139668,201791,203524,12140,0,10:50:48.690776
154223,139667,201764,203520,12150,0,10:50:48.730832
154221,139660,201807,203520,12160,0,10:50:48.770078
154223,139662,201765,203529,12170,0,10:50:48.810816
154226,139662,201779,203527,12180,0,10:50:48.850002
154216,139654,201775,203523,12190,0,10:50:48.890735
154229,139669,201779,203530,12200,0,10:50:48.930431
154222,139658,201784,203536,12210,0,10:50:48.971426
154222,139663,201789,203528,12220,0,10:50:49.010695
154220,139656,201776,203525,12230,0,10:50:49.049772
154229,139666,201778,203520,12240,0,10:50:49.090356
154256,139661,201773,203522,12250,0,10:50:49.129543
154219,139663,201774,203517,12260,0,10:50:49.169590
154185,139658,201781,203518,12270,0,10:50:49.210588
154240,139648,201776,203525,12280,0,10:50:49.250417
154214,139657,201736,203522,12290,0,10:50:49.290833
154212,139652,201735,203523,12300,0,10:50:49.330771
154221,139661,201817,203518,12310,0,10:50:49.369899
154214,139653,201762,203521,12320,0,10:50:49.410291
154202,139644,201772,203525,12330,0,10:50:49.449845
154221,139664,201771,203519,12340,0,10:50:49.490577
154211,139650,201774,203525,12350,0,10:50:49.530788
154223,139654,201772,203521,12360,0,10:50:49.569992
154216,139657,201772,203529,12370,0,10:50:49.610838
154229,139655,201773,203531,12380,0,10:50:49.650779
154206,139656,201766,203521,12390,0,10:50:49.690643
154212,139654,201763,203526,12400,0,10:50:49.730079
154221,139655,201771,203526,12410,0,10:50:49.770792
154267,139657,201757,203525,12420,0,10:50:49.810272
154198,139653,201766,203518,12430,0,10:50:49.849769
154226,139665,201801,203521,12440,0,10:50:49.889550
154223,139662,201776,203521,12450,0,10:50:49.930439
154207,139652,201748,203524,12460,0,10:50:49.970339
154217,139659,201762,203520,12470,0,10:50:50.009919
154221,139665,201772,203528,12480,0,10:50:50.050860
154202,139646,201769,203521,12490,0,10:50:50.090700
154217,139656,201770,203527,12500,0,10:50:50.130744
154185,139655,201771,203524,12510,0,10:50:50.169850
154222,139665,201771,203522,12520,0,10:50:50.211023
154216,139655,201765,203513,12530,0,10:50:50.250411
154223,139660,201733,203523,12540,0,10:50:50.290118
154231,139660,201769,203524,12550,0,10:50:50.330797
154193,139652,201772,203521,12560,0,10:50:50.370225
154215,139654,201783,203522,12570,0,10:50:50.410834
154216,139657,201767,203519,12580,0,10:50:50.449783
154209,139653,201729,203519,12590,0,10:50:50.490403
154212,139654,201796,203520,12600,0,10:50:50.530071
154217,139658,201762,203520,12610,0,10:50:50.570817
154209,139653,201772,203522,12620,0,10:50:50.610769
154215,139660,201768,203522,12630,0,10:50:50.650839
154223,139658,201773,203523,12640,0,10:50:50.690041
154215,139650,201769,203519,12650,0,10:50:50.730835
154251,139660,201772,203524,12660,0,10:50:50.770587
154232,139661,201768,203516,12670,0,10:50:50.810820
154224,139664,201781,203526,12680,0,10:50:50.850447
154190,139647,201766,203513,12690,0,10:50:50.890527
154184,139649,201784,203516,12700,0,10:50:50.930460
154259,139664,201767,203519,12710,0,10:50:50.970805
154204,139658,201769,203521,12720,0,10:50:51.010388
154220,139655,201777,203521,12730,0,10:50:51.050484
154220,139657,201835,203526,12740,0,10:50:51.089626
154208,139651,201747,203520,12750,0,10:50:51.130030
154226,139663,201769,203519,12760,0,10:50:51.170050
154218,139654,201771,203517,12770,0,10:50:51.210678
154217,139654,201773,203523,12780,0,10:50:51.250122
154215,139650,201767,203519,12790,0,10:50:51.290824
154233,139661,201772,203524,12800,0,10:50:51.330328
154221,139662,201768,203515,12810,0,10:50:51.369784
154217,139650,201765,203513,12820,0,10:50:51.410741
154203,139649,201783,203513,12830,0,10:50:51.450612
154228,139647,201762,203520,12840,0,10:50:51.490058
154216,139654,201765,203513,12850,0,10:50:51.530829
154203,139654,201754,203515,12860,0,10:50:51.570080
154213,139658,201799,203517,12870,0,10:50:51.610831
154219,139657,201715,203515,12880,0,10:50:51.650779
154220,139659,201789,203517,12890,0,10:50:51.690678
154215,139656,201766,203516,12900,0,10:50:51.730477
154202,139648,201764,203519,12910,0,10:50:51.770790
154210,139655,201765,203519,12920,0,10:50:51.809587
154221,139659,201764,203511,12930,0,10:50:51.849808
154213,139651,201765,203515,12940,0,10:50:51.890772
154189,139644,201760,203513,12950,0,10:50:51.929576
154224,139660,201765,203507,12960,0,10:50:51.969964
154212,139646,201766,203509,12970,0,10:50:52.010042
154233,139653,201763,203505,12980,0,10:50:52.050309
154146,139649,201755,203505,12990,0,10:50:52.090431
154256,139665,201770,203510,13000,0,10:50:52.130308
154208,139653,201778,203514,13010,0,10:50:52.170062
154218,139656,201724,203506,13020,0,10:50:52.210662
154214,139655,201822,203516,13030,0,10:50:52.250247
154213,139654,201732,203514,13040,0,10:50:52.290096
154212,139649,201765,203511,13050,0,10:50:52.330596
154209,139653,201761,203522,13060,0,10:50:52.384261
154212,139649,201763,203510,13070,0,10:50:52.416176
154220,139655,201757,203513,13080,0,10:50:52.456961
154213,139649,201761,203511,13090,0,10:50:52.502374
154213,139650,201759,203516,13100,0,10:50:52.530003
154235,139650,201764,203513,13110,0,10:50:52.571477
154218,139652,201770,203510,13120,0,10:50:52.610204
154202,139648,201757,203506,13130,0,10:50:52.650004
154260,139657,201761,203513,13140,0,10:50:52.689964
154184,139649,201742,203513,13150,0,10:50:52.730194
154214,139657,201784,203511,13160,0,10:50:52.770120
154210,139648,201781,203520,13170,0,10:50:52.810351
154211,139652,201743,203510,13180,0,10:50:52.850190
154212,139648,201759,203507,13190,0,10:50:52.890015
154214,139653,201759,203509,13200,0,10:50:52.930191
154217,139658,201757,203507,13210,0,10:50:52.980293
154199,139644,201759,203506,13220,0,10:50:53.010409
154224,139652,201756,203506,13230,0,10:50:53.050805
154206,139651,201759,203506,13240,0,10:50:53.090406
154209,139641,201762,203509,13250,0,10:50:53.130117
154174,139643,201762,203513,13260,0,10:50:53.180014
154243,139656,201742,203504,13270,0,10:50:53.209934
154212,139654,201761,203508,13280,0,10:50:53.250342
154182,139647,201756,203507,13290,0,10:50:53.290235
154208,139645,201784,203507,13300,0,10:50:53.349757
154217,139655,201707,203505,13310,0,10:50:53.369703
154216,139654,201766,203506,13320,0,10:50:53.410189
154215,139654,201750,203509,13330,0,10:50:53.451176
154211,139648,201763,203508,13340,0,10:50:53.523185
154202,139648,201754,203506,13350,0,10:50:53.550113
154208,139653,201758,203510,13360,0,10:50:53.603970
154240,139652,201758,203515,13370,0,10:50:53.639873
154196,139651,201761,203515,13380,0,10:50:53.655832
154209,139651,201757,203511,13390,0,10:50:53.689811
154213,139658,201763,203508,13400,0,10:50:53.730083
154239,139654,201762,203514,13410,0,10:50:53.770238
154197,139646,201758,203509,13420,0,10:50:53.810450
154191,139652,201759,203508,13430,0,10:50:53.850057
154200,139638,201762,203508,13440,0,10:50:53.889723
154203,139650,201737,203507,13450,0,10:50:53.930413
154206,139650,201793,203508,13460,0,10:50:53.972184
154196,139640,201759,203507,13470,0,10:50:54.010083
154206,139643,201757,203505,13480,0,10:50:54.050128
154213,139649,201758,203506,13490,0,10:50:54.090192
154205,139650,201762,203509,13500,0,10:50:54.130241
154212,139646,201754,203504,13510,0,10:50:54.170379
154208,139655,201753,203504,13520,0,10:50:54.220003
154213,139643,201757,203504,13530,0,10:50:54.249933
154202,139645,201766,203507,13540,0,10:50:54.289521
154179,139649,201751,203500,13550,0,10:50:54.330412
154187,139642,201754,203506,13560,0,10:50:54.370058
154215,139637,201747,203504,13570,0,10:50:54.409950
154196,139639,201784,203499,13580,0,10:50:54.450331
154197,139646,201702,203494,13590,0,10:50:54.489998
154194,139643,201797,203501,13600,0,10:50:54.540881
154192,139634,201741,203494,13610,0,10:50:54.570440
154198,139643,201747,203494,13620,0,10:50:54.609608
154194,139637,201752,203505,13630,0,10:50:54.650391
154215,139643,201751,203495,13640,0,10:50:54.690282
154218,139651,201746,203497,13650,0,10:50:54.729841
154184,139635,201752,203502,13660,0,10:50:54.770167
154199,139647,201749,203502,13670,0,10:50:54.810234
154189,139646,201745,203496,13680,0,10:50:54.850134
154223,139648,201717,203499,13690,0,10:50:54.889730
154198,139660,201741,203491,13700,0,10:50:54.930708
154234,139644,201742,203499,13710,0,10:50:54.970082
154201,139655,201757,203494,13720,0,10:50:55.010606
154199,139649,201703,203494,13730,0,10:50:55.050261
154198,139647,201762,203497,13740,0,10:50:55.089708
154196,139642,201720,203495,13750,0,10:50:55.130371
154213,139655,201745,203494,13760,0,10:50:55.169989
154203,139647,201739,203490,13770,0,10:50:55.210745
154193,139640,201747,203500,13780,0,10:50:55.250702
154186,139630,201748,203501,13790,0,10:50:55.290015
154181,139645,201740,203493,13800,0,10:50:55.329780
154195,139644,201743,203496,13810,0,10:50:55.369824
154188,139632,201746,203497,13820,0,10:50:55.410104
154208,139641,201744,203494,13830,0,10:50:55.450444
154173,139647,201745,203505,13840,0,10:50:55.489801
154203,139639,201750,203502,13850,0,10:50:55.529820
154174,139639,201744,203502,13860,0,10:50:55.570259
154187,139635,201711,203496,13870,0,10:50:55.610153
154195,139648,201741,203489,13880,0,10:50:55.650723
154197,139651,201712,203487,13890,0,10:50:55.690615
154199,139648,201744,203502,13900,0,10:50:55.730967
154185,139635,201737,203490,13910,0,10:50:55.760498
154198,139645,201736,203488,13920,0,10:50:55.809917
154192,139640,201742,203496,13930,0,10:50:55.840441
154206,139645,201736,203493,13940,0,10:50:55.879713
154197,139646,201740,203490,13950,0,10:50:55.929708
154213,139647,201737,203492,13960,0,10:50:55.970336
154186,139638,201751,203492,13970,0,10:50:56.010425
154220,139656,201737,203496,13980,0,10:50:56.050536
154185,139639,201735,203494,13990,0,10:50:56.080493
154195,139645,201737,203492,14000,0,10:50:56.130010
154185,139638,201742,203486,14010,0,10:50:56.160600
154195,139640,201730,203492,14020,0,10:50:56.209654
154199,139647,201763,203500,14030,0,10:50:56.240577
154188,139636,201728,203494,14040,0,10:50:56.280714
154187,139636,201737,203493,14050,0,10:50:56.320504
154189,139642,201743,203504,14060,0,10:50:56.360663
154184,139634,201737,203494,14070,0,10:50:56.400690
154190,139638,201739,203495,14080,0,10:50:56.441808
154185,139636,201733,203484,14090,0,10:50:56.490833
154192,139636,201731,203492,14100,0,10:50:56.520611
154195,139641,201736,203489,14110,0,10:50:56.560763
154220,139647,201734,203486,14120,0,10:50:56.600032
154203,139652,201738,203495,14130,0,10:50:56.640096
154214,139641,201758,203496,14140,0,10:50:56.680596
154177,139636,201746,203492,14150,0,10:50:56.720270
154205,139649,201696,203488,14160,0,10:50:56.760735
154192,139635,201743,203493,14170,0,10:50:56.800382
154187,139632,201738,203493,14180,0,10:50:56.841829
154201,139651,201737,203493,14190,0,10:50:56.880027
154193,139638,201744,203493,14200,0,10:50:56.919927
154187,139636,201734,203487,14210,0,10:50:56.959821
154196,139639,201743,203493,14220,0,10:50:57.000434
154197,139641,201735,203488,14230,0,10:50:57.039744
154201,139653,201736,203487,14240,0,10:50:57.080175
154187,139633,201736,203490,14250,0,10:50:57.120788
154205,139638,201736,203490,14260,0,10:50:57.160192
154199,139638,201731,203483,14270,0,10:50:57.210205
154173,139641,201761,203489,14280,0,10:50:57.240185
154233,139638,201736,203492,14290,0,10:50:57.279581
154191,139636,201744,203490,14300,0,10:50:57.320028
154194,139633,201737,203481,14310,0,10:50:57.359912
154186,139628,201751,203478,14320,0,10:50:57.400465
154197,139640,201727,203492,14330,0,10:50:57.440015
154192,139629,201734,203482,14340,0,10:50:57.480579
154200,139641,201736,203487,14350,0,10:50:57.520527
154198,139642,201734,203486,14360,0,10:50:57.560420
154189,139642,201731,203487,14370,0,10:50:57.600544
154185,139631,201733,203485,14380,0,10:50:57.640544
154192,139640,201738,203488,14390,0,10:50:57.680765
154195,139641,201731,203484,14400,0,10:50:57.720613
154207,139642,201735,203484,14410,0,10:50:57.760599
154190,139636,201737,203496,14420,0,10:50:57.800755
154199,139634,201732,203490,14430,0,10:50:57.840734
154171,139644,201742,203491,14440,0,10:50:57.880227
154193,139647,201682,203488,14450,0,10:50:57.920609
154185,139633,201755,203490,14460,0,10:50:57.960689
154182,139632,201699,203485,14470,0,10:50:58.000656
154190,139643,201729,203485,14480,0,10:50:58.040942
154190,139639,201733,203495,14490,0,10:50:58.079825
154189,139640,201730,203490,14500,0,10:50:58.120566
154188,139636,201734,203489,14510,0,10:50:58.160027
154184,139633,201730,203492,14520,0,10:50:58.200889
154191,139645,201730,203490,14530,0,10:50:58.239784
154189,139638,201732,203489,14540,0,10:50:58.280760
154206,139637,201730,203488,14550,0,10:50:58.320585
154181,139640,201732,203486,14560,0,10:50:58.360566
154166,139641,201735,203496,14570,0,10:50:58.400525
154182,139636,201750,203482,14580,0,10:50:58.440571
154194,139640,201711,203484,14590,0,10:50:58.480691
154190,139638,201720,203483,14600,0,10:50:58.520667
154187,139630,201791,203485,14610,0,10:50:58.560618
154187,139633,201734,203487,14620,0,10:50:58.600760
154180,139628,201731,203484,14630,0,10:50:58.640783
154184,139629,201729,203490,14640,0,10:50:58.679656
154182,139628,201734,203489,14650,0,10:50:58.720251
154181,139631,201733,203487,14660,0,10:50:58.759905
154181,139625,201727,203473,14670,0,10:50:58.801752
154191,139637,201732,203484,14680,0,10:50:58.840649
154202,139639,201727,203476,14690,0,10:50:58.880949
154170,139616,201731,203477,14700,0,10:50:58.919895
154191,139624,201731,203478,14710,0,10:50:58.960771
154210,139633,201733,203486,14720,0,10:50:59.000751
154180,139638,201684,203482,14730,0,10:50:59.039831
154182,139625,201739,203479,14740,0,10:50:59.079721
154188,139632,201763,203481,14750,0,10:50:59.120331
154177,139621,201697,203491,14760,0,10:50:59.160149
154187,139633,201727,203480,14770,0,10:50:59.200407
154196,139644,201730,203482,14780,0,10:50:59.240725
154188,139635,201730,203488,14790,0,10:50:59.279924
154186,139631,201733,203491,14800,0,10:50:59.319893
154186,139636,201728,203476,14810,0,10:50:59.360103
154187,139639,201731,203483,14820,0,10:50:59.400503
154180,139629,201733,203484,14830,0,10:50:59.440735
154188,139633,201728,203481,14840,0,10:50:59.480914
154214,139639,201727,203477,14850,0,10:50:59.520601
154197,139633,201726,203480,14860,0,10:50:59.559901
154183,139633,201739,203478,14870,0,10:50:59.600735
154187,139633,201767,203486,14880,0,10:50:59.640600
154175,139624,201711,203484,14890,0,10:50:59.680239
154192,139633,201714,203476,14900,0,10:50:59.720341
154185,139631,201731,203482,14910,0,10:50:59.761955
154184,139633,201728,203483,14920,0,10:50:59.800747
154174,139618,201726,203476,14930,0,10:50:59.839913
154185,139632,201729,203480,14940,0,10:50:59.880950
154193,139639,201731,203483,14950,0,10:50:59.919933
154187,139629,201729,203481,14960,0,10:50:59.959842
154183,139631,201726,203471,14970,0,10:50:59.999998
154183,139623,201727,203482,14980,0,10:51:00.040785
154173,139627,201728,203479,14990,0,10:51:00.080942
154169,139628,201725,203477,15000,0,10:51:00.120620
154187,139625,201741,203487,15010,0,10:51:00.162100
154181,139631,201704,203477,15020,0,10:51:00.199734
154175,139619,201709,203477,15030,0,10:51:00.240629
154179,139620,201747,203481,15040,0,10:51:00.280942
154188,139633,201724,203478,15050,0,10:51:00.319917
154175,139624,201724,203474,15060,0,10:51:00.360961
154175,139622,201727,203477,15070,0,10:51:00.400703
154177,139624,201726,203477,15080,0,10:51:00.439920
154180,139628,201728,203481,15090,0,10:51:00.481119
154176,139624,201726,203483,15100,0,10:51:00.520590
154176,139626,201719,203476,15110,0,10:51:00.560369
154173,139625,201721,203475,15120,0,10:51:00.600589
154184,139629,201722,203474,15130,0,10:51:00.640941
154189,139642,201723,203479,15140,0,10:51:00.690039
154214,139619,201720,203477,15150,0,10:51:00.719908
154156,139623,201724,203479,15160,0,10:51:00.760934
154185,139633,201711,203475,15170,0,10:51:00.800352
154177,139625,201772,203481,15180,0,10:51:00.840251
154177,139625,201702,203481,15190,0,10:51:00.881480
154182,139628,201725,203476,15200,0,10:51:00.931340
154184,139628,201721,203474,15210,0,10:51:00.960565
154179,139623,201725,203471,15220,0,10:51:01.000726
154188,139630,201723,203474,15230,0,10:51:01.040392
154184,139631,201724,203481,15240,0,10:51:01.089746
154184,139631,201722,203475,15250,0,10:51:01.120938
154181,139622,201723,203480,15260,0,10:51:01.160633
154191,139622,201728,203476,15270,0,10:51:01.210407
154198,139633,201723,203476,15280,0,10:51:01.240398
154132,139633,201719,203478,15290,0,10:51:01.280908
154163,139622,201743,203481,15300,0,10:51:01.319877
154183,139634,201706,203468,15310,0,10:51:01.359920
154172,139617,201688,203473,15320,0,10:51:01.400758
154179,139624,201762,203474,15330,0,10:51:01.439790
154191,139643,201726,203476,15340,0,10:51:01.480301
154174,139618,201721,203472,15350,0,10:51:01.520606
154177,139620,201721,203473,15360,0,10:51:01.559500
154179,139627,201720,203472,15370,0,10:51:01.600455
154180,139625,201721,203473,15380,0,10:51:01.640322
154177,139633,201720,203471,15390,0,10:51:01.679926
154183,139623,201724,203475,15400,0,10:51:01.719884
154180,139628,201726,203480,15410,0,10:51:01.760824
154154,139631,201723,203474,15420,0,10:51:01.799712
154150,139615,201746,203478,15430,0,10:51:01.840648
154231,139636,201714,203470,15440,0,10:51:01.880610
154168,139626,201726,203478,15450,0,10:51:01.920110
154175,139629,201737,203481,15460,0,10:51:01.960957
154171,139616,201780,203471,15470,0,10:51:02.000627
154182,139624,201678,203474,15480,0,10:51:02.039970
154185,139632,201722,203475,15490,0,10:51:02.080956
154173,139626,201717,203469,15500,0,10:51:02.120072
154174,139618,201724,203475,15510,0,10:51:02.160749
154193,139627,201720,203467,15520,0,10:51:02.199920
154168,139621,201725,203477,15530,0,10:51:02.240830
154172,139620,201722,203469,15540,0,10:51:02.279927
154167,139624,201733,203466,15550,0,10:51:02.320958
154185,139633,201705,203472,15560,0,10:51:02.360857
154207,139629,201719,203473,15570,0,10:51:02.400632
154178,139620,201716,203472,15580,0,10:51:02.439766
154157,139614,201724,203477,15590,0,10:51:02.480554
154177,139628,201735,203469,15600,0,10:51:02.519855
154175,139626,201703,203475,15610,0,10:51:02.559959
154178,139628,201707,203475,15620,0,10:51:02.600409
154174,139622,201727,203480,15630,0,10:51:02.639956
154169,139620,201720,203470,15640,0,10:51:02.680868
154165,139622,201719,203475,15650,0,10:51:02.719848
154170,139618,201720,203475,15660,0,10:51:02.760840
154175,139629,201721,203477,15670,0,10:51:02.800700
154150,139615,201721,203479,15680,0,10:51:02.840041
154181,139629,201725,203481,15690,0,10:51:02.880887
154180,139624,201726,203478,15700,0,10:51:02.919912
154188,139618,201724,203482,15710,0,10:51:02.960721
154119,139624,201721,203473,15720,0,10:51:03.000668
154172,139619,201724,203471,15730,0,10:51:03.039888
154170,139617,201752,203475,15740,0,10:51:03.079908
154178,139624,201633,203472,15750,0,10:51:03.119940
154174,139625,201747,203477,15760,0,10:51:03.161838
154172,139621,201710,203477,15770,0,10:51:03.201065
154176,139615,201718,203475,15780,0,10:51:03.239744
154162,139618,201721,203472,15790,0,10:51:03.280860
154173,139621,201719,203468,15800,0,10:51:03.320626
154178,139627,201717,203472,15810,0,10:51:03.360400
154180,139623,201727,203474,15820,0,10:51:03.399993
154200,139621,201718,203470,15830,0,10:51:03.440891
154190,139634,201719,203472,15840,0,10:51:03.480978
154174,139625,201728,203476,15850,0,10:51:03.520145
154152,139618,201718,203474,15860,0,10:51:03.560382
154233,139626,201764,203475,15870,0,10:51:03.600423
154147,139613,201707,203470,15880,0,10:51:03.639961
154165,139616,201731,203468,15890,0,10:51:03.680056
154170,139621,201788,203477,15900,0,10:51:03.719762
154167,139618,201697,203471,15910,0,10:51:03.760461
154173,139626,201711,203471,15920,0,10:51:03.800624
154177,139627,201713,203468,15930,0,10:51:03.839816
154171,139626,201714,203468,15940,0,10:51:03.880041
154172,139626,201710,203468,15950,0,10:51:03.920609
154180,139616,201716,203471,15960,0,10:51:03.960799
154164,139619,201714,203473,15970,0,10:51:04.000595
154167,139611,201711,203465,15980,0,10:51:04.039927
154164,139620,201729,203471,15990,0,10:51:04.080162
154185,139616,201702,203466,16000,0,10:51:04.119927
154178,139623,201712,203467,16010,0,10:51:04.160939
154171,139621,201712,203472,16020,0,10:51:04.200676
154167,139617,201737,203467,16030,0,10:51:04.239933
154168,139619,201689,203466,16040,0,10:51:04.279962
154171,139616,201743,203465,16050,0,10:51:04.319954
154161,139610,201716,203476,16060,0,10:51:04.359949
154172,139614,201716,203462,16070,0,10:51:04.400462
154176,139625,201715,203463,16080,0,10:51:04.440825
154171,139615,201717,203469,16090,0,10:51:04.481176
154179,139619,201713,203464,16100,0,10:51:04.520296
154177,139626,201706,203459,16110,0,10:51:04.559970
154172,139621,201710,203462,16120,0,10:51:04.600390
154217,139620,201711,203470,16130,0,10:51:04.640994
154139,139624,201702,203473,16140,0,10:51:04.680189
154208,139614,201717,203473,16150,0,10:51:04.720570
154155,139626,201731,203458,16160,0,10:51:04.760814
154165,139613,201638,203460,16170,0,10:51:04.799669
154174,139621,201753,203468,16180,0,10:51:04.839988
154160,139606,201674,203459,16190,0,10:51:04.880389
154180,139625,201709,203458,16200,0,10:51:04.920990
154171,139625,201711,203469,16210,0,10:51:04.960833
154173,139626,201708,203468,16220,0,10:51:05.000665
154161,139610,201704,203467,16230,0,10:51:05.040957
154178,139627,201712,203466,16240,0,10:51:05.079896
154160,139606,201707,203466,16250,0,10:51:05.120278
154186,139618,201715,203467,16260,0,10:51:05.160206
154168,139622,201722,203462,16270,0,10:51:05.200207
154174,139613,201711,203471,16280,0,10:51:05.240062
154162,139617,201743,203463,16290,0,10:51:05.280852
154152,139608,201689,203460,16300,0,10:51:05.320249
154172,139625,201732,203465,16310,0,10:51:05.359667
154181,139628,201699,203467,16320,0,10:51:05.400689
154165,139616,201738,203461,16330,0,10:51:05.440266
154166,139614,201710,203466,16340,0,10:51:05.480279
154168,139622,201710,203468,16350,0,10:51:05.519752
154172,139617,201705,203461,16360,0,10:51:05.560730
154158,139612,201704,203463,16370,0,10:51:05.600600
154195,139624,201709,203472,16380,0,10:51:05.640965
154169,139621,201700,203457,16390,0,10:51:05.680636
154165,139619,201702,203464,16400,0,10:51:05.719909
154133,139610,201717,203465,16410,0,10:51:05.760509
154189,139629,201671,203459,16420,0,10:51:05.800275
154136,139622,201701,203457,16430,0,10:51:05.840312
154192,139624,201702,203466,16440,0,10:51:05.879583
154151,139609,201732,203455,16450,0,10:51:05.920558
154174,139624,201675,203464,16460,0,10:51:05.960243
154168,139619,201744,203470,16470,0,10:51:06.000215
154162,139616,201696,203465,16480,0,10:51:06.040539
154166,139611,201705,203458,16490,0,10:51:06.079667
154162,139608,201704,203459,16500,0,10:51:06.120356
154161,139616,201705,203464,16510,0,10:51:06.160355
154173,139619,201708,203461,16520,0,10:51:06.200233
154131,139620,201707,203462,16530,0,10:51:06.240689
154162,139613,201703,203456,16540,0,10:51:06.280971
154165,139614,201701,203458,16550,0,10:51:06.320563
154175,139611,201706,203465,16560,0,10:51:06.360795
154141,139610,201703,203461,16570,0,10:51:06.400273
154217,139615,201710,203464,16580,0,10:51:06.440787
154143,139608,201726,203460,16590,0,10:51:06.480466
154168,139623,201669,203465,16600,0,10:51:06.519728
154165,139618,201733,203467,16610,0,10:51:06.560725
154163,139612,201689,203457,16620,0,10:51:06.600047
154161,139612,201704,203458,16630,0,10:51:06.640690
154125,139617,201711,203459,16640,0,10:51:06.680971
154168,139614,201707,203466,16650,0,10:51:06.720320
154162,139614,201707,203459,16660,0,10:51:06.760801
154168,139615,201708,203458,16670,0,10:51:06.800044
154164,139612,201706,203465,16680,0,10:51:06.840519
154172,139613,201706,203459,16690,0,10:51:06.880391
154168,139618,201717,203464,16700,0,10:51:06.920558
154151,139615,201712,203466,16710,0,10:51:06.960722
154158,139601,201724,203461,16720,0,10:51:07.000182
154161,139611,201698,203453,16730,0,10:51:07.040665
154169,139615,201732,203461,16740,0,10:51:07.080745
154170,139615,201695,203454,16750,0,10:51:07.120653
154179,139626,201695,203454,16760,0,10:51:07.160796
154173,139624,201703,203457,16770,0,10:51:07.200636
154169,139619,201705,203460,16780,0,10:51:07.240888
154159,139610,201702,203459,16790,0,10:51:07.280689
154168,139618,201705,203460,16800,0,10:51:07.320420
154182,139617,201703,203461,16810,0,10:51:07.359612
154162,139619,201709,203461,16820,0,10:51:07.400153
154168,139617,201708,203461,16830,0,10:51:07.440722
154149,139618,201714,203463,16840,0,10:51:07.480199
154178,139624,201686,203458,16850,0,10:51:07.520581
154174,139621,201705,203458,16860,0,10:51:07.560967
154203,139623,201707,203468,16870,0,10:51:07.600431
154130,139607,201705,203455,16880,0,10:51:07.640755
154168,139622,201704,203462,16890,0,10:51:07.680663
154173,139621,201729,203462,16900,0,10:51:07.719884
154169,139617,201681,203465,16910,0,10:51:07.759611
154171,139618,201705,203456,16920,0,10:51:07.800201
154169,139623,201702,203463,16930,0,10:51:07.840754
154154,139610,201703,203461,16940,0,10:51:07.880622
154162,139620,201699,203459,16950,0,10:51:07.920434
154170,139625,201702,203466,16960,0,10:51:07.960819
154165,139620,201704,203467,16970,0,10:51:08.000330
154172,139620,201698,203458,16980,0,10:51:08.040831
154176,139612,201702,203460,16990,0,10:51:08.080322
154162,139616,201701,203467,17000,0,10:51:08.120487
154148,139620,201709,203461,17010,0,10:51:08.160524
154133,139615,201717,203460,17020,0,10:51:08.200701
154168,139624,201699,203466,17030,0,10:51:08.240293
154165,139624,201691,203470,17040,0,10:51:08.280112
154168,139621,201727,203464,17050,0,10:51:08.320627
154169,139622,201703,203460,17060,0,10:51:08.359556
154162,139620,201705,203467,17070,0,10:51:08.400265
154159,139609,201700,203460,17080,0,10:51:08.440881
154157,139610,201702,203464,17090,0,10:51:08.480744
154164,139618,201699,203460,17100,0,10:51:08.520672
154164,139615,201708,203470,17110,0,10:51:08.560386
154179,139613,201710,203459,17120,0,10:51:08.600474
154166,139610,201712,203462,17130,0,10:51:08.639666
154144,139608,201688,203460,17140,0,10:51:08.680764
154136,139606,201740,203457,17150,0,10:51:08.720489
154199,139607,201692,203459,17160,0,10:51:08.760352
154156,139609,201697,203462,17170,0,10:51:08.800483
154159,139608,201679,203462,17180,0,10:51:08.840776
154153,139604,201738,203459,17190,0,10:51:08.880657
154168,139617,201697,203459,17200,0,10:51:08.920387
154158,139609,201702,203462,17210,0,10:51:08.960360
154157,139604,201705,203454,17220,0,10:51:09.000271
154167,139615,201700,203458,17230,0,10:51:09.040489
154155,139598,201703,203462,17240,0,10:51:09.080186
154152,139604,201703,203459,17250,0,10:51:09.120380
154156,139606,201697,203451,17260,0,10:51:09.160761
154145,139615,201728,203459,17270,0,10:51:09.200520
154170,139614,201694,203456,17280,0,10:51:09.240320
154156,139596,201704,203458,17290,0,10:51:09.280362
154190,139614,201672,203455,17300,0,10:51:09.320005
154141,139611,201699,203456,17310,0,10:51:09.359823
154148,139598,201672,203454,17320,0,10:51:09.400501
154146,139596,201720,203451,17330,0,10:51:09.440651
154160,139608,201665,203454,17340,0,10:51:09.480126
154156,139606,201695,203447,17350,0,10:51:09.520501
154162,139610,201702,203455,17360,0,10:51:09.560734
154167,139614,201699,203454,17370,0,10:51:09.600154
154156,139599,201703,203452,17380,0,10:51:09.640966
154166,139613,201695,203454,17390,0,10:51:09.680646
154165,139611,201705,203459,17400,0,10:51:09.720433
154154,139602,201699,203451,17410,0,10:51:09.760694
154151,139597,201680,203449,17420,0,10:51:09.800487
154181,139612,201704,203453,17430,0,10:51:09.840663
154141,139610,201698,203450,17440,0,10:51:09.880597
154160,139612,201717,203452,17450,0,10:51:09.925475
154153,139600,201716,203455,17460,0,10:51:09.963373
154157,139603,201663,203450,17470,0,10:51:09.999826
154164,139610,201726,203453,17480,0,10:51:10.039908
154169,139619,201700,203454,17490,0,10:51:10.080244
154151,139603,201694,203444,17500,0,10:51:10.119759
154155,139602,201701,203453,17510,0,10:51:10.160307
154151,139602,201695,203454,17520,0,10:51:10.200200
154163,139613,201693,203441,17530,0,10:51:10.240385
154153,139594,201696,203444,17540,0,10:51:10.279383
154153,139602,201697,203454,17550,0,10:51:10.320390
154176,139609,201698,203449,17560,0,10:51:10.360286
154181,139610,201694,203447,17570,0,10:51:10.400122
154121,139609,201704,203458,17580,0,10:51:10.440797
154191,139612,201713,203450,17590,0,10:51:10.480412
154165,139617,201675,203444,17600,0,10:51:10.520484
154156,139607,201663,203447,17610,0,10:51:10.560421
154164,139612,201733,203450,17620,0,10:51:10.600194
154161,139611,201687,203449,17630,0,10:51:10.640132
154123,139611,201686,203445,17640,0,10:51:10.679934
154153,139606,201694,203448,17650,0,10:51:10.738514
154158,139612,201697,203450,17660,0,10:51:10.772457
154159,139611,201693,203446,17670,0,10:51:10.811195
154153,139607,201692,203443,17680,0,10:51:10.849799
154167,139610,201693,203449,17690,0,10:51:10.879512
154182,139617,201696,203448,17700,0,10:51:10.920339
154142,139607,201711,203443,17710,0,10:51:10.960634
154112,139601,201705,203451,17720,0,10:51:11.000353
154188,139609,201703,203459,17730,0,10:51:11.040743
154146,139606,201660,203445,17740,0,10:51:11.080603
154161,139610,201656,203444,17750,0,10:51:11.119564
154156,139600,201730,203457,17760,0,10:51:11.160799
154154,139597,201678,203448,17770,0,10:51:11.200429
154162,139611,201695,203448,17780,0,10:51:11.240458
154154,139601,201692,203443,17790,0,10:51:11.280685
154161,139609,201694,203449,17800,0,10:51:11.320770
154162,139607,201691,203443,17810,0,10:51:11.360654
154143,139592,201694,203444,17820,0,10:51:11.400248
154162,139604,201698,203451,17830,0,10:51:11.440666
154148,139604,201703,203449,17840,0,10:51:11.480596
154161,139612,201688,203443,17850,0,10:51:11.522165
154163,139607,201695,203450,17860,0,10:51:11.562059
154186,139603,201683,203449,17870,0,10:51:11.599957
154116,139610,201690,203445,17880,0,10:51:11.639857
154150,139605,201715,203448,17890,0,10:51:11.679754
154156,139609,201706,203450,17900,0,10:51:11.720156
154158,139607,201682,203447,17910,0,10:51:11.760052
154151,139601,201691,203444,17920,0,10:51:11.800325
154157,139605,201694,203452,17930,0,10:51:11.839582
154150,139603,201687,203446,17940,0,10:51:11.880491
154143,139595,201693,203450,17950,0,10:51:11.920713
154173,139608,201687,203438,17960,0,10:51:11.961096
154132,139595,201690,203451,17970,0,10:51:12.000312
154157,139610,201694,203452,17980,0,10:51:12.040433
154145,139600,201691,203451,17990,0,10:51:12.080753
154183,139601,201671,203446,18000,0,10:51:12.120093
154107,139603,201689,203445,18010,0,10:51:12.159426
154160,139598,201692,203443,18020,0,10:51:12.200353
154156,139607,201719,203445,18030,0,10:51:12.240818
154141,139592,201630,203442,18040,0,10:51:12.280272
154149,139603,201742,203444,18050,0,10:51:12.320625
154157,139607,201687,203444,18060,0,10:51:12.360798
154157,139608,201686,203435,18070,0,10:51:12.400277
154153,139605,201686,203438,18080,0,10:51:12.440626
154149,139603,201689,203441,18090,0,10:51:12.480434
154148,139594,201682,203448,18100,0,10:51:12.520500
154160,139608,201682,203445,18110,0,10:51:12.560677
154156,139604,201683,203437,18120,0,10:51:12.600184
154165,139608,201690,203441,18130,0,10:51:12.639688
154169,139600,201693,203444,18140,0,10:51:12.680638
154124,139610,201674,203443,18150,0,10:51:12.719745
154217,139618,201715,203451,18160,0,10:51:12.760582
154140,139607,201683,203441,18170,0,10:51:12.800569
154160,139612,201604,203450,18180,0,10:51:12.840532
154150,139608,201746,203449,18190,0,10:51:12.880407
154146,139602,201659,203444,18200,0,10:51:12.919794
154157,139611,201685,203445,18210,0,10:51:12.960685
154145,139599,201686,203440,18220,0,10:51:13.000616
154150,139601,201693,203450,18230,0,10:51:13.040475
154149,139596,201686,203440,18240,0,10:51:13.080509
154161,139608,201689,203442,18250,0,10:51:13.120619
154154,139611,201690,203450,18260,0,10:51:13.160783
154179,139596,201681,203440,18270,0,10:51:13.189845
154145,139598,201707,203447,18280,0,10:51:13.240597
154132,139601,201691,203442,18290,0,10:51:13.280271
154196,139603,201685,203451,18300,0,10:51:13.309885
154122,139602,201672,203443,18310,0,10:51:13.360680
154149,139606,201700,203443,18320,0,10:51:13.400253
154156,139611,201662,203447,18330,0,10:51:13.440351
154146,139600,201667,203446,18340,0,10:51:13.480778
154144,139596,201686,203440,18350,0,10:51:13.520389
154150,139604,201684,203441,18360,0,10:51:13.550232
154147,139599,201683,203438,18370,0,10:51:13.600296
154134,139584,201684,203441,18380,0,10:51:13.640832
154158,139599,201688,203448,18390,0,10:51:13.669830
154155,139607,201678,203445,18400,0,10:51:13.710859
154142,139600,201682,203443,18410,0,10:51:13.750192
154170,139607,201684,203443,18420,0,10:51:13.789859
154145,139608,201681,203444,18430,0,10:51:13.830980
154115,139600,201689,203447,18440,0,10:51:13.870928
154161,139601,201689,203449,18450,0,10:51:13.910806
154154,139608,201683,203453,18460,0,10:51:13.950166
154152,139604,201630,203439,18470,0,10:51:13.990293
154146,139601,201753,203449,18480,0,10:51:14.030873
154152,139607,201672,203449,18490,0,10:51:14.069853
154147,139597,201687,203441,18500,0,10:51:14.110881
154155,139607,201691,203442,18510,0,10:51:14.150544
154153,139601,201690,203440,18520,0,10:51:14.190439
154152,139604,201690,203442,18530,0,10:51:14.230431
154156,139601,201686,203441,18540,0,10:51:14.270677
154151,139602,201690,203439,18550,0,10:51:14.310730
154149,139605,201691,203446,18560,0,10:51:14.350404
154185,139600,201691,203444,18570,0,10:51:14.390710
154140,139594,201689,203446,18580,0,10:51:14.430988
154221,139610,201687,203442,18590,0,10:51:14.469783
154122,139604,201687,203444,18600,0,10:51:14.509985
154146,139605,201658,203443,18610,0,10:51:14.550953
154147,139601,201700,203443,18620,0,10:51:14.590040
154147,139607,201686,203442,18630,0,10:51:14.631437
154151,139603,201682,203444,18640,0,10:51:14.670691
154144,139598,201677,203438,18650,0,10:51:14.710146
154146,139598,201684,203440,18660,0,10:51:14.750273
154143,139596,201683,203437,18670,0,10:51:14.791308
154149,139602,201685,203441,18680,0,10:51:14.830840
154151,139601,201685,203442,18690,0,10:51:14.870863
154141,139591,201682,203441,18700,0,10:51:14.910707
154163,139600,201683,203439,18710,0,10:51:14.950421
154116,139604,201676,203436,18720,0,10:51:14.990837
154175,139602,201680,203445,18730,0,10:51:15.031793
154133,139591,201676,203440,18740,0,10:51:15.070654
154149,139604,201650,203438,18750,0,10:51:15.111262
154139,139589,201724,203436,18760,0,10:51:15.150262
154147,139601,201651,203433,18770,0,10:51:15.190544
154136,139591,201685,203442,18780,0,10:51:15.230382
154137,139589,201679,203434,18790,0,10:51:15.270243
154146,139602,201680,203438,18800,0,10:51:15.310427
154144,139599,201673,203434,18810,0,10:51:15.350078
154149,139599,201682,203436,18820,0,10:51:15.390641
154143,139596,201677,203434,18830,0,10:51:15.431335
154140,139596,201674,203439,18840,0,10:51:15.470729
154152,139592,201679,203436,18850,0,10:51:15.510644
154102,139602,201685,203437,18860,0,10:51:15.550472
154194,139589,201678,203435,18870,0,10:51:15.590454
154100,139594,201689,203439,18880,0,10:51:15.630689
154146,139595,201590,203427,18890,0,10:51:15.670585
154144,139602,201718,203437,18900,0,10:51:15.710626
154145,139595,201660,203435,18910,0,10:51:15.750361
154145,139602,201676,203437,18920,0,10:51:15.790776
154142,139596,201673,203434,18930,0,10:51:15.830467
154146,139604,201675,203437,18940,0,10:51:15.870177
154155,139608,201675,203431,18950,0,10:51:15.910945
154145,139597,201673,203436,18960,0,10:51:15.950198
154142,139598,201681,203436,18970,0,10:51:15.990643
154144,139600,201675,203429,18980,0,10:51:16.030809
154162,139593,201680,203437,18990,0,10:51:16.070552
154102,139595,201681,203436,19000,0,10:51:16.110832
154186,139593,201682,203437,19010,0,10:51:16.150423
154111,139586,201685,203435,19020,0,10:51:16.190435
154141,139591,201667,203432,19030,0,10:51:16.230794
154134,139589,201718,203434,19040,0,10:51:16.269734
154143,139598,201666,203440,19050,0,10:51:16.310840
154142,139599,201674,203431,19060,0,10:51:16.360303
154138,139594,201677,203434,19070,0,10:51:16.390392
154140,139594,201682,203443,19080,0,10:51:16.431495
154146,139602,201678,203436,19090,0,10:51:16.470300
154139,139596,201680,203447,19100,0,10:51:16.510605
154152,139602,201674,203433,19110,0,10:51:16.550417
154138,139591,201680,203441,19120,0,10:51:16.590250
154151,139603,201679,203440,19130,0,10:51:16.630610
154164,139596,201650,203435,19140,0,10:51:16.670617
154139,139599,201677,203436,19150,0,10:51:16.709982
154150,139592,201675,203432,19160,0,10:51:16.750173
154131,139595,201693,203436,19170,0,10:51:16.790228
154146,139595,201675,203436,19180,0,10:51:16.830902
154144,139593,201714,203432,19190,0,10:51:16.870424
154141,139595,201643,203444,19200,0,10:51:16.910841
154143,139593,201682,203438,19210,0,10:51:16.950278
154141,139592,201681,203436,19220,0,10:51:16.990173
154138,139590,201683,203437,19230,0,10:51:17.030291
154140,139591,201676,203430,19240,0,10:51:17.070724
154149,139601,201679,203437,19250,0,10:51:17.110858
154150,139602,201676,203431,19260,0,10:51:17.150393
154148,139598,201680,203435,19270,0,10:51:17.190579
154156,139594,201681,203434,19280,0,10:51:17.230737
154111,139586,201686,203436,19290,0,10:51:17.280674
154131,139588,201694,203430,19300,0,10:51:17.310866
154144,139591,201690,203429,19310,0,10:51:17.349803
154136,139590,201678,203437,19320,0,10:51:17.390648
154140,139591,201655,203434,19330,0,10:51:17.430139
154131,139586,201711,203434,19340,0,10:51:17.470098
154135,139591,201683,203442,19350,0,10:51:17.510496
154134,139588,201673,203429,19360,0,10:51:17.550604
154140,139594,201675,203435,19370,0,10:51:17.590655
154144,139598,201681,203441,19380,0,10:51:17.629990
154166,139604,201674,203431,19390,0,10:51:17.670756
154139,139587,201679,203438,19400,0,10:51:17.709872
154150,139602,201674,203431,19410,0,10:51:17.750458
154144,139592,201674,203427,19420,0,10:51:17.790813
154170,139592,201677,203436,19430,0,10:51:17.831261
154145,139597,201677,203432,19440,0,10:51:17.870888
154163,139601,201678,203435,19450,0,10:51:17.910053
154127,139583,201689,203433,19460,0,10:51:17.950444
154139,139590,201621,203436,19470,0,10:51:17.990734
154139,139593,201700,203437,19480,0,10:51:18.030611
154140,139589,201651,203430,19490,0,10:51:18.081458
154142,139596,201684,203442,19500,0,10:51:18.122348
154137,139587,201678,203431,19510,0,10:51:18.150275
154141,139594,201675,203434,19520,0,10:51:18.190336
154144,139595,201676,203431,19530,0,10:51:18.231232
154147,139601,201677,203434,19540,0,10:51:18.281099
154141,139595,201677,203432,19550,0,10:51:18.319811
154145,139587,201675,203429,19560,0,10:51:18.350490
154150,139593,201679,203434,19570,0,10:51:18.390048
154116,139593,201679,203433,19580,0,10:51:18.439683
154142,139593,201691,203431,19590,0,10:51:18.469745
154133,139586,201708,203431,19600,0,10:51:18.510858
154136,139583,201695,203426,19610,0,10:51:18.549865
154141,139596,201663,203429,19620,0,10:51:18.590880
154136,139587,201670,203428,19630,0,10:51:18.630303
154137,139587,201670,203432,19640,0,10:51:18.670327
154145,139596,201675,203431,19650,0,10:51:18.710791
154148,139598,201674,203431,19660,0,10:51:18.759528
154139,139590,201677,203435,19670,0,10:51:18.790043
154152,139604,201674,203429,19680,0,10:51:18.830843
154135,139592,201677,203433,19690,0,10:51:18.870344
154142,139599,201676,203434,19700,0,10:51:18.920358
154114,139586,201691,203431,19710,0,10:51:18.950436
154138,139590,201655,203429,19720,0,10:51:18.991348
154109,139589,201653,203433,19730,0,10:51:19.030629
154175,139600,201675,203431,19740,0,10:51:19.070424
154121,139604,201683,203433,19750,0,10:51:19.110850
154130,139585,201674,203428,19760,0,10:51:19.149919
154138,139589,201695,203434,19770,0,10:51:19.190698
154141,139595,201656,203432,19780,0,10:51:19.230653
154131,139585,201669,203421,19790,0,10:51:19.270727
154134,139585,201674,203430,19800,0,10:51:19.310703
154138,139589,201672,203425,19810,0,10:51:19.350390
154136,139586,201680,203433,19820,0,10:51:19.390573
154109,139585,201675,203433,19830,0,10:51:19.430150
154142,139594,201668,203425,19840,0,10:51:19.469655
154142,139591,201671,203429,19850,0,10:51:19.510352
154146,139590,201676,203434,19860,0,10:51:19.550417
154152,139598,201669,203423,19870,0,10:51:19.590359
154126,139586,201697,203430,19880,0,10:51:19.630723
154129,139586,201677,203428,19890,0,10:51:19.670535
154138,139585,201658,203427,19900,0,10:51:19.709798
154142,139596,201655,203423,19910,0,10:51:19.750689
154131,139580,201712,203428,19920,0,10:51:19.789620
154144,139595,201672,203425,19930,0,10:51:19.830242
154145,139595,201674,203433,19940,0,10:51:19.870241
154136,139586,201674,203429,19950,0,10:51:19.909924
154134,139587,201676,203433,19960,0,10:51:19.950430
154138,139583,201671,203423,19970,0,10:51:19.990893
154142,139587,201676,203427,19980,0,10:51:20.030025
154183,139598,201671,203424,19990,0,10:51:20.070675
154118,139576,201680,203420,20000,0,10:51:20.110667
154149,139591,201670,203423,20010,0,10:51:20.150421
154135,139596,201671,203430,20020,0,10:51:20.190605
154191,139601,201655,203435,20030,0,10:51:20.230248
154131,139590,201669,203424,20040,0,10:51:20.270683
154144,139598,201676,203419,20050,0,10:51:20.310842
154133,139582,201698,203423,20060,0,10:51:20.350383
154141,139592,201640,203421,20070,0,10:51:20.390112
154134,139587,201675,203437,20080,0,10:51:20.430652
154130,139581,201671,203423,20090,0,10:51:20.469810
154134,139587,201670,203426,20100,0,10:51:20.510255
154143,139597,201673,203428,20110,0,10:51:20.549943
154128,139590,201671,203429,20120,0,10:51:20.589719
154133,139579,201676,203424,20130,0,10:51:20.629688
154129,139581,201636,203436,20140,0,10:51:20.669688
154137,139586,201661,203423,20150,0,10:51:20.710074
154151,139589,201668,203422,20160,0,10:51:20.749958
154145,139572,201676,203428,20170,0,10:51:20.789986
154127,139594,201679,203426,20180,0,10:51:20.829878
154136,139583,201687,203427,20190,0,10:51:20.869799
154132,139586,201667,203433,20200,0,10:51:20.909906
154143,139595,201667,203423,20210,0,10:51:20.950299
154142,139587,201676,203432,20220,0,10:51:20.990275
154136,139583,201671,203424,20230,0,10:51:21.030828
154137,139584,201669,203423,20240,0,10:51:21.070795
154141,139590,201670,203422,20250,0,10:51:21.110430
154133,139575,201671,203429,20260,0,10:51:21.150402
154146,139589,201672,203430,20270,0,10:51:21.190786
154152,139589,201674,203429,20280,0,10:51:21.230674
154135,139583,201674,203428,20290,0,10:51:21.269801
154128,139595,201676,203431,20300,0,10:51:21.310403
154113,139587,201704,203427,20310,0,10:51:21.350266
154174,139598,201658,203427,20320,0,10:51:21.390723
154116,139588,201667,203427,20330,0,10:51:21.430835
154132,139586,201670,203424,20340,0,10:51:21.469582
154128,139587,201706,203425,20350,0,10:51:21.510166
154126,139582,201638,203422,20360,0,10:51:21.550396
154133,139584,201672,203434,20370,0,10:51:21.589954
154125,139576,201672,203423,20380,0,10:51:21.630699
154164,139584,201667,203424,20390,0,10:51:21.669855
154163,139585,201667,203424,20400,0,10:51:21.710252
154128,139576,201669,203425,20410,0,10:51:21.750152
154131,139585,201671,203429,20420,0,10:51:21.790700
154100,139591,201668,203430,20430,0,10:51:21.830556
154136,139585,201651,203420,20440,0,10:51:21.870823
154159,139584,201667,203431,20450,0,10:51:21.910050
154113,139585,201673,203427,20460,0,10:51:21.950583
154129,139582,201683,203415,20470,0,10:51:21.989864
154139,139592,201691,203426,20480,0,10:51:22.029991
154136,139589,201599,203424,20490,0,10:51:22.069729
154130,139586,201714,203423,20500,0,10:51:22.109982
154136,139588,201668,203428,20510,0,10:51:22.152116
154137,139588,201667,203426,20520,0,10:51:22.189633
154123,139574,201670,203426,20530,0,10:51:22.230452
154139,139592,201663,203419,20540,0,10:51:22.270757
154132,139584,201664,203428,20550,0,10:51:22.310991
154125,139582,201664,203423,20560,0,10:51:22.350023
154134,139576,201669,203428,20570,0,10:51:22.390426
154133,139586,201675,203422,20580,0,10:51:22.431645
154130,139587,201671,203424,20590,0,10:51:22.469866
154131,139580,201700,203421,20600,0,10:51:22.510453
154159,139589,201668,203423,20610,0,10:51:22.550265
154116,139583,201671,203428,20620,0,10:51:22.590010
154138,139585,201699,203425,20630,0,10:51:22.629944
154135,139584,201711,203420,20640,0,10:51:22.670015
154128,139576,201653,203421,20650,0,10:51:22.710642
154129,139583,201670,203427,20660,0,10:51:22.751270
154132,139584,201669,203426,20670,0,10:51:22.791054
154125,139578,201663,203417,20680,0,10:51:22.831688
154143,139582,201671,203426,20690,0,10:51:22.870401
154131,139592,201667,203424,20700,0,10:51:22.910695
154142,139586,201668,203417,20710,0,10:51:22.950153
154127,139582,201665,203422,20720,0,10:51:22.990859
154143,139583,201642,203418,20730,0,10:51:23.030196
154142,139582,201665,203419,20740,0,10:51:23.070621
154100,139584,201674,203424,20750,0,10:51:23.110265
154128,139586,201691,203426,20760,0,10:51:23.150842
154138,139588,201682,203423,20770,0,10:51:23.190683
154139,139588,201622,203421,20780,0,10:51:23.230946
154141,139593,201730,203427,20790,0,10:51:23.271236
154131,139579,201667,203417,20800,0,10:51:23.310656
154128,139577,201665,203411,20810,0,10:51:23.350263
154130,139584,201666,203423,20820,0,10:51:23.390318
154129,139578,201661,203403,20830,0,10:51:23.430689
154127,139585,201669,203422,20840,0,10:51:23.470616
154128,139580,201673,203423,20850,0,10:51:23.510554
154126,139577,201668,203422,20860,0,10:51:23.550366
154141,139590,201664,203417,20870,0,10:51:23.590811
154130,139583,201670,203423,20880,0,10:51:23.630296
154067,139588,201667,203425,20890,0,10:51:23.670783
154183,139586,201682,203415,20900,0,10:51:23.710868
154118,139580,201658,203417,20910,0,10:51:23.751361
154141,139592,201670,203424,20920,0,10:51:23.790220
154134,139583,201700,203427,20930,0,10:51:23.830316
154124,139575,201633,203419,20940,0,10:51:23.869687
154131,139581,201663,203421,20950,0,10:51:23.910860
154128,139582,201668,203429,20960,0,10:51:23.950263
154136,139588,201671,203423,20970,0,10:51:23.990846
154131,139586,201666,203415,20980,0,10:51:24.031644
154149,139580,201667,203423,20990,0,10:51:24.069677
154114,139577,201664,203415,21000,0,10:51:24.110067
154120,139574,201662,203422,21010,0,10:51:24.150315
154110,139582,201670,203420,21020,0,10:51:24.219119
154164,139586,201635,203416,21030,0,10:51:24.254619
154135,139590,201664,203418,21040,0,10:51:24.291575
154120,139590,201666,203421,21050,0,10:51:24.316021
154126,139580,201682,203420,21060,0,10:51:24.351173
154138,139589,201604,203419,21070,0,10:51:24.390068
154133,139584,201682,203421,21080,0,10:51:24.429969
154127,139578,201659,203427,21090,0,10:51:24.469889
154121,139573,201660,203414,21100,0,10:51:24.510213
154126,139581,201661,203422,21110,0,10:51:24.550103
154130,139586,201661,203422,21120,0,10:51:24.591226
154130,139579,201662,203419,21130,0,10:51:24.630486
154125,139586,201680,203418,21140,0,10:51:24.679577
154102,139582,201660,203413,21150,0,10:51:24.709839
154130,139584,201663,203422,21160,0,10:51:24.751347
154154,139585,201661,203420,21170,0,10:51:24.800342
154098,139579,201667,203419,21180,0,10:51:24.840694
154160,139575,201663,203418,21190,0,10:51:24.871283
154110,139583,201678,203411,21200,0,10:51:24.911430
154119,139575,201672,203412,21210,0,10:51:24.950305
154133,139588,201662,203424,21220,0,10:51:24.990800
154130,139582,201644,203416,21230,0,10:51:25.031574
154128,139583,201661,203422,21240,0,10:51:25.070790
154132,139588,201660,203419,21250,0,10:51:25.120788
154128,139580,201660,203420,21260,0,10:51:25.150331
154122,139580,201664,203415,21270,0,10:51:25.190887
154124,139569,201660,203417,21280,0,10:51:25.240857
154143,139586,201609,203417,21290,0,10:51:25.279933
154139,139580,201666,203422,21300,0,10:51:25.311507
154122,139577,201669,203417,21310,0,10:51:25.351001
154148,139581,201677,203423,21320,0,10:51:25.390617
154111,139580,201657,203427,21330,0,10:51:25.430830
154117,139585,201654,203422,21340,0,10:51:25.469672
154129,139581,201690,203425,21350,0,10:51:25.510611
154119,139575,201594,203426,21360,0,10:51:25.550324
154133,139588,201683,203421,21370,0,10:51:25.589696
154131,139586,201659,203420,21380,0,10:51:25.630854
154119,139575,201669,203426,21390,0,10:51:25.680853
154118,139575,201660,203421,21400,0,10:51:25.720343
154151,139581,201661,203426,21410,0,10:51:25.750221
154119,139580,201656,203417,21420,0,10:51:25.790834
154095,139574,201663,203417,21430,0,10:51:25.840688
154105,139574,201681,203412,21440,0,10:51:25.880854
154139,139580,201625,203412,21450,0,10:51:25.911098
154084,139575,201661,203412,21460,0,10:51:25.950216
154185,139578,201671,203410,21470,0,10:51:25.991359
154106,139588,201676,203417,21480,0,10:51:26.030655
154126,139578,201632,203420,21490,0,10:51:26.069711
154133,139581,201712,203422,21500,0,10:51:26.110585
154137,139582,201632,203416,21510,0,10:51:26.159672
154124,139576,201657,203410,21520,0,10:51:26.189705
154120,139574,201661,203421,21530,0,10:51:26.231680
154131,139586,201657,203414,21540,0,10:51:26.280604
154138,139591,201658,203416,21550,0,10:51:26.320025
154131,139582,201660,203417,21560,0,10:51:26.350255
154136,139579,201631,203421,21570,0,10:51:26.391320
154119,139567,201655,203412,21580,0,10:51:26.440691
154126,139575,201660,203405,21590,0,10:51:26.469690
154161,139584,201658,203420,21600,0,10:51:26.511303
154115,139584,201654,203416,21610,0,10:51:26.550607
154126,139571,201633,203411,21620,0,10:51:26.600448
154126,139577,201624,203416,21630,0,10:51:26.631265
154124,139578,201646,203412,21640,0,10:51:26.671002
154123,139576,201692,203421,21650,0,10:51:26.719809
154121,139572,201649,203414,21660,0,10:51:26.760226
154120,139574,201652,203412,21670,0,10:51:26.790299
154130,139584,201658,203412,21680,0,10:51:26.831306
154112,139568,201658,203419,21690,0,10:51:26.880854
154141,139580,201659,203423,21700,0,10:51:26.909774
154104,139572,201659,203420,21710,0,10:51:26.951254
154101,139572,201657,203418,21720,0,10:51:26.991298
154120,139573,201691,203413,21730,0,10:51:27.030146
154118,139567,201651,203413,21740,0,10:51:27.070723
154103,139577,201659,203416,21750,0,10:51:27.110852
154185,139573,201664,203409,21760,0,10:51:27.149958
154085,139560,201672,203416,21770,0,10:51:27.200290
154123,139578,201637,203417,21780,0,10:51:27.230802
154118,139570,201661,203413,21790,0,10:51:27.270435
154111,139566,201623,203407,21800,0,10:51:27.310850
154125,139578,201658,203414,21810,0,10:51:27.349970
154123,139579,201657,203413,21820,0,10:51:27.390823
154124,139576,201655,203414,21830,0,10:51:27.430780
154127,139577,201656,203415,21840,0,10:51:27.470586
154125,139578,201656,203413,21850,0,10:51:27.510791
154111,139572,201651,203409,21860,0,10:51:27.549969
154160,139582,201660,203420,21870,0,10:51:27.590775
154114,139581,201678,203417,21880,0,10:51:27.630514
154127,139579,201623,203411,21890,0,10:51:27.670009
154120,139585,201654,203417,21900,0,10:51:27.710872
154110,139578,201638,203415,21910,0,10:51:27.760799
154122,139573,201631,203411,21920,0,10:51:27.790634
154128,139578,201613,203413,21930,0,10:51:27.831932
154129,139585,201670,203413,21940,0,10:51:27.869711
154118,139573,201653,203422,21950,0,10:51:27.910816
154122,139576,201660,203419,21960,0,10:51:27.950311
154123,139577,201657,203415,21970,0,10:51:27.990436
154129,139584,201649,203407,21980,0,10:51:28.030836
154121,139569,201652,203414,21990,0,10:51:28.071235
154113,139577,201660,203424,22000,0,10:51:28.110802
154128,139579,201650,203404,22010,0,10:51:28.150540
154120,139572,201659,203415,22020,0,10:51:28.200300
154135,139581,201639,203415,22030,0,10:51:28.231316
154137,139569,201660,203409,22040,0,10:51:28.270484
154131,139575,201661,203416,22050,0,10:51:28.311255
154099,139570,201659,203413,22060,0,10:51:28.350238
154121,139573,201654,203412,22070,0,10:51:28.390809
154133,139591,201651,203416,22080,0,10:51:28.430852
154121,139572,201644,203404,22090,0,10:51:28.470659
154128,139584,201657,203407,22100,0,10:51:28.509944
154125,139574,201659,203414,22110,0,10:51:28.549851
154120,139577,201656,203413,22120,0,10:51:28.590717
154134,139585,201654,203409,22130,0,10:51:28.630646
154131,139575,201654,203412,22140,0,10:51:28.670584
154122,139576,201657,203417,22150,0,10:51:28.710002
154135,139576,201656,203419,22160,0,10:51:28.749945
154121,139582,201662,203409,22170,0,10:51:28.790697
154130,139582,201656,203416,22180,0,10:51:28.830728
154101,139574,201686,203413,22190,0,10:51:28.869923
154138,139575,201646,203414,22200,0,10:51:28.910557
154119,139576,201673,203406,22210,0,10:51:28.949978
154126,139579,201630,203411,22220,0,10:51:28.989907
154131,139582,201719,203409,22230,0,10:51:29.030607
154128,139585,201646,203419,22240,0,10:51:29.070479
154119,139578,201655,203417,22250,0,10:51:29.110849
154119,139573,201655,203414,22260,0,10:51:29.150358
154115,139570,201652,203413,22270,0,10:51:29.190840
154149,139577,201655,203416,22280,0,10:51:29.230466
154111,139568,201658,203415,22290,0,10:51:29.270685
154125,139580,201659,203412,22300,0,10:51:29.310670
154106,139577,201655,203406,22310,0,10:51:29.350267
154127,139576,201619,203411,22320,0,10:51:29.390711
154073,139572,201648,203407,22330,0,10:51:29.430528
154163,139572,201652,203418,22340,0,10:51:29.470030
154094,139574,201662,203414,22350,0,10:51:29.510855
154105,139560,201647,203411,22360,0,10:51:29.549998
154120,139572,201680,203407,22370,0,10:51:29.590496
154117,139572,201620,203408,22380,0,10:51:29.629707
154113,139565,201648,203405,22390,0,10:51:29.679897
154123,139573,201647,203407,22400,0,10:51:29.710824
154118,139576,201650,203407,22410,0,10:51:29.750055
154121,139576,201646,203403,22420,0,10:51:29.790024
154115,139567,201645,203400,22430,0,10:51:29.829854
154115,139565,201652,203412,22440,0,10:51:29.870775
154128,139580,201652,203409,22450,0,10:51:29.910853
154123,139570,201656,203405,22460,0,10:51:29.950197
154101,139569,201650,203410,22470,0,10:51:29.990677
154110,139572,201666,203403,22480,0,10:51:30.030649
154110,139557,201646,203406,22490,0,10:51:30.070585
154115,139567,201614,203410,22500,0,10:51:30.110290
154124,139577,201634,203407,22510,0,10:51:30.150284
154108,139559,201674,203406,22520,0,10:51:30.190699
154116,139570,201644,203405,22530,0,10:51:30.229688
154107,139558,201647,203398,22540,0,10:51:30.270467
154118,139571,201651,203407,22550,0,10:51:30.310870
154115,139566,201648,203403,22560,0,10:51:30.349636
154124,139567,201647,203405,22570,0,10:51:30.390842
154101,139555,201646,203406,22580,0,10:51:30.430326
154100,139556,201649,203405,22590,0,10:51:30.470043
154099,139568,201673,203407,22600,0,10:51:30.510848
154114,139571,201624,203405,22610,0,10:51:30.550281
154146,139568,201646,203405,22620,0,10:51:30.590598
154118,139565,201628,203401,22630,0,10:51:30.619984
154083,139558,201684,203405,22640,0,10:51:30.661106
154107,139564,201673,203406,22650,0,10:51:30.710830
154109,139569,201595,203405,22660,0,10:51:30.760847
154108,139569,201638,203402,22670,0,10:51:30.790775
154115,139571,201645,203405,22680,0,10:51:30.831146
154112,139569,201639,203397,22690,0,10:51:30.870355
154104,139570,201643,203405,22700,0,10:51:30.910861
154115,139574,201644,203407,22710,0,10:51:30.950417
154074,139567,201645,203406,22720,0,10:51:30.980891
154115,139572,201643,203402,22730,0,10:51:31.020020
154115,139569,201647,203403,22740,0,10:51:31.059833
154124,139568,201648,203402,22750,0,10:51:31.100035
154096,139568,201646,203404,22760,0,10:51:31.140040
154086,139560,201645,203407,22770,0,10:51:31.179978
154125,139565,201664,203408,22780,0,10:51:31.219985
154102,139564,201633,203409,22790,0,10:51:31.260616
154109,139564,201654,203404,22800,0,10:51:31.299952
154119,139572,201712,203406,22810,0,10:51:31.340100
154115,139568,201631,203411,22820,0,10:51:31.381576
154115,139573,201641,203400,22830,0,10:51:31.420829
154114,139568,201644,203404,22840,0,10:51:31.460557
154115,139567,201650,203409,22850,0,10:51:31.500834
154111,139567,201641,203404,22860,0,10:51:31.539952
154120,139569,201645,203403,22870,0,10:51:31.581358
154115,139573,201647,203408,22880,0,10:51:31.619889
154105,139563,201643,203403,22890,0,10:51:31.659905
154111,139561,201639,203402,22900,0,10:51:31.700064
154127,139570,201647,203408,22910,0,10:51:31.739933
154111,139573,201645,203404,22920,0,10:51:31.780511
154091,139557,201661,203401,22930,0,10:51:31.820166
154103,139558,201678,203402,22940,0,10:51:31.870752
154110,139564,201625,203403,22950,0,10:51:31.900013
154107,139561,201645,203407,22960,0,10:51:31.940698
154110,139569,201648,203406,22970,0,10:51:31.980920
154114,139571,201642,203397,22980,0,10:51:32.020342
154111,139567,201646,203402,22990,0,10:51:32.060907
154108,139564,201646,203407,23000,0,10:51:32.100194
154112,139571,201646,203406,23010,0,10:51:32.139813
154110,139568,201639,203399,23020,0,10:51:32.190542
154107,139559,201641,203403,23030,0,10:51:32.220573
154119,139567,201641,203404,23040,0,10:51:32.261054
154093,139562,201646,203400,23050,0,10:51:32.300366
154074,139550,201644,203403,23060,0,10:51:32.349974
154124,139573,201643,203402,23070,0,10:51:32.380927
154096,139557,201631,203404,23080,0,10:51:32.420892
154108,139567,201663,203403,23090,0,10:51:32.460131
154104,139564,201692,203401,23100,0,10:51:32.500235
154120,139577,201625,203404,23110,0,10:51:32.539915
154107,139567,201648,203414,23120,0,10:51:32.582591
154108,139567,201641,203394,23130,0,10:51:32.620862
154106,139565,201641,203400,23140,0,10:51:32.660870
154116,139574,201640,203406,23150,0,10:51:32.700084
154115,139571,201641,203398,23160,0,10:51:32.750218
154113,139571,201635,203404,23170,0,10:51:32.781319
154110,139571,201638,203404,23180,0,10:51:32.819845
154119,139571,201642,203401,23190,0,10:51:32.860747
154119,139558,201641,203402,23200,0,10:51:32.910437
154101,139566,201645,203400,23210,0,10:51:32.941080
154116,139578,201655,203408,23220,0,10:51:32.980920
154108,139567,201631,203399,23230,0,10:51:33.019984
154102,139564,201611,203407,23240,0,10:51:33.059994
154114,139572,201683,203402,23250,0,10:51:33.101107
154105,139557,201645,203404,23260,0,10:51:33.140910
154105,139560,201646,203402,23270,0,10:51:33.181031
154109,139565,201646,203407,23280,0,10:51:33.219840
154109,139567,201645,203405,23290,0,10:51:33.260026
154104,139562,201642,203400,23300,0,10:51:33.299950
154112,139568,201644,203405,23310,0,10:51:33.340405
154110,139568,201643,203407,23320,0,10:51:33.380754
154115,139571,201648,203408,23330,0,10:51:33.419733
154131,139575,201645,203407,23340,0,10:51:33.460005
154089,139569,201643,203405,23350,0,10:51:33.499955
154173,139566,201642,203405,23360,0,10:51:33.541126
154076,139575,201647,203408,23370,0,10:51:33.580817
154107,139560,201669,203409,23380,0,10:51:33.620876
154102,139558,201693,203412,23390,0,10:51:33.659845
154108,139560,201620,203407,23400,0,10:51:33.699803
154107,139564,201647,203404,23410,0,10:51:33.739985
154109,139562,201650,203414,23420,0,10:51:33.780188
154101,139561,201650,203407,23430,0,10:51:33.820212
154107,139561,201648,203405,23440,0,10:51:33.859993
154110,139563,201643,203399,23450,0,10:51:33.901161
154113,139567,201648,203408,23460,0,10:51:33.940418
154106,139564,201647,203401,23470,0,10:51:33.980233
154124,139560,201645,203404,23480,0,10:51:34.020625
154128,139569,201647,203404,23490,0,10:51:34.059981
154119,139580,201643,203394,23500,0,10:51:34.100735
154085,139562,201663,203398,23510,0,10:51:34.140685
154117,139577,201629,203402,23520,0,10:51:34.180878
154110,139563,201595,203401,23530,0,10:51:34.220776
154113,139567,201673,203401,23540,0,10:51:34.260003
154112,139570,201636,203401,23550,0,10:51:34.299834
154117,139574,201639,203399,23560,0,10:51:34.340697
154102,139559,201643,203402,23570,0,10:51:34.380678
154112,139563,201644,203399,23580,0,10:51:34.419979
154113,139568,201646,203411,23590,0,10:51:34.460020
154108,139563,201640,203399,23600,0,10:51:34.500242
154106,139564,201645,203399,23610,0,10:51:34.539973
154115,139573,201637,203395,23620,0,10:51:34.581206
154119,139566,201643,203402,23630,0,10:51:34.619872
154101,139572,201645,203403,23640,0,10:51:34.660006
154155,139558,201639,203400,23650,0,10:51:34.700223
154094,139565,201644,203401,23660,0,10:51:34.739850
154114,139571,201637,203396,23670,0,10:51:34.780531
154112,139572,201664,203397,23680,0,10:51:34.821243
154110,139567,201612,203397,23690,0,10:51:34.860025
154105,139560,201647,203406,23700,0,10:51:34.900229
154108,139565,201649,203401,23710,0,10:51:34.939928
154110,139558,201646,203402,23720,0,10:51:34.980203
154123,139575,201648,203404,23730,0,10:51:35.020684
154112,139561,201638,203399,23740,0,10:51:35.059994
